Created as New Dataset,
nm,A
800.0,-0.0006
799.9,0.0000
799.8,0.0005
799.7,-0.0017
799.6,-0.0004
799.5,-0.0010
799.4,-0.0014
799.3,-0.0002
799.2,0.0000
799.1,-0.0013
799.0,-0.0006
798.9,-0.0021
798.8,-0.0003
798.7,-0.0004
798.6,-0.0008
798.5,-0.0025
798.4,-0.0008
798.3,-0.0003
798.2,-0.0008
798.1,-0.0008
798.0,-0.0012
797.9,-0.0008
797.8,-0.0001
797.7,-0.0006
797.6,-0.0012
797.5,-0.0013
797.4,-0.0005
797.3,0.0004
797.2,0.0003
797.1,-0.0001
797.0,-0.0005
796.9,-0.0017
796.8,-0.0008
796.7,-0.0007
796.6,-0.0004
796.5,-0.0005
796.4,-0.0000
796.3,-0.0021
796.2,-0.0009
796.1,-0.0010
796.0,-0.0009
795.9,-0.0005
795.8,-0.0006
795.7,-0.0006
795.6,-0.0002
795.5,-0.0007
795.4,-0.0016
795.3,-0.0005
795.2,0.0001
795.1,-0.0003
795.0,-0.0010
794.9,-0.0011
794.8,-0.0010
794.7,-0.0003
794.6,-0.0001
794.5,-0.0004
794.4,-0.0004
794.3,-0.0000
794.2,-0.0003
794.1,-0.0004
794.0,-0.0006
793.9,-0.0001
793.8,-0.0005
793.7,-0.0003
793.6,-0.0004
793.5,-0.0019
793.4,-0.0019
793.3,-0.0009
793.2,-0.0010
793.1,-0.0009
793.0,-0.0009
792.9,-0.0005
792.8,-0.0011
792.7,-0.0011
792.6,-0.0005
792.5,-0.0008
792.4,-0.0006
792.3,-0.0008
792.2,-0.0004
792.1,-0.0008
792.0,-0.0004
791.9,-0.0004
791.8,-0.0010
791.7,-0.0009
791.6,-0.0011
791.5,-0.0011
791.4,-0.0013
791.3,-0.0010
791.2,-0.0010
791.1,-0.0009
791.0,-0.0005
790.9,-0.0011
790.8,-0.0011
790.7,-0.0001
790.6,-0.0000
790.5,-0.0012
790.4,-0.0015
790.3,-0.0004
790.2,0.0004
790.1,-0.0001
790.0,-0.0001
789.9,-0.0002
789.8,-0.0007
789.7,-0.0008
789.6,-0.0014
789.5,-0.0008
789.4,-0.0001
789.3,-0.0009
789.2,-0.0009
789.1,-0.0001
789.0,0.0000
788.9,-0.0010
788.8,-0.0009
788.7,-0.0006
788.6,-0.0016
788.5,-0.0016
788.4,-0.0012
788.3,-0.0014
788.2,-0.0012
788.1,-0.0009
788.0,-0.0006
787.9,-0.0011
787.8,-0.0010
787.7,-0.0006
787.6,-0.0009
787.5,-0.0007
787.4,-0.0004
787.3,-0.0002
787.2,-0.0007
787.1,-0.0012
787.0,-0.0005
786.9,-0.0001
786.8,-0.0003
786.7,-0.0009
786.6,-0.0016
786.5,-0.0012
786.4,-0.0002
786.3,-0.0003
786.2,-0.0004
786.1,-0.0011
786.0,-0.0014
785.9,-0.0012
785.8,-0.0013
785.7,-0.0015
785.6,-0.0007
785.5,-0.0005
785.4,-0.0015
785.3,-0.0006
785.2,-0.0011
785.1,-0.0013
785.0,-0.0016
784.9,-0.0017
784.8,-0.0008
784.7,-0.0019
784.6,-0.0013
784.5,-0.0016
784.4,-0.0003
784.3,0.0002
784.2,0.0001
784.1,0.0003
784.0,-0.0006
783.9,-0.0010
783.8,0.0001
783.7,-0.0006
783.6,-0.0009
783.5,-0.0011
783.4,-0.0010
783.3,-0.0009
783.2,-0.0004
783.1,0.0002
783.0,0.0001
782.9,-0.0012
782.8,-0.0010
782.7,-0.0016
782.6,-0.0008
782.5,-0.0003
782.4,-0.0006
782.3,-0.0006
782.2,-0.0011
782.1,-0.0011
782.0,-0.0000
781.9,-0.0002
781.8,0.0000
781.7,-0.0010
781.6,-0.0018
781.5,-0.0018
781.4,-0.0007
781.3,-0.0003
781.2,-0.0010
781.1,-0.0010
781.0,-0.0008
780.9,-0.0014
780.8,-0.0014
780.7,-0.0012
780.6,-0.0006
780.5,-0.0011
780.4,-0.0014
780.3,-0.0022
780.2,-0.0017
780.1,-0.0001
780.0,-0.0011
779.9,-0.0008
779.8,-0.0007
779.7,-0.0020
779.6,-0.0009
779.5,-0.0006
779.4,-0.0012
779.3,-0.0011
779.2,-0.0008
779.1,-0.0009
779.0,-0.0005
778.9,-0.0008
778.8,-0.0011
778.7,-0.0010
778.6,-0.0010
778.5,-0.0010
778.4,-0.0013
778.3,-0.0008
778.2,-0.0009
778.1,-0.0009
778.0,-0.0009
777.9,-0.0002
777.8,-0.0007
777.7,-0.0016
777.6,-0.0005
777.5,-0.0005
777.4,-0.0006
777.3,-0.0010
777.2,-0.0007
777.1,-0.0004
777.0,-0.0007
776.9,-0.0000
776.8,-0.0010
776.7,0.0002
776.6,0.0006
776.5,-0.0014
776.4,-0.0003
776.3,-0.0021
776.2,-0.0015
776.1,-0.0024
776.0,-0.0021
775.9,-0.0009
775.8,-0.0002
775.7,-0.0011
775.6,-0.0020
775.5,-0.0018
775.4,-0.0013
775.3,-0.0001
775.2,-0.0002
775.1,-0.0010
775.0,-0.0006
774.9,-0.0004
774.8,-0.0010
774.7,-0.0008
774.6,-0.0001
774.5,-0.0004
774.4,-0.0014
774.3,-0.0008
774.2,-0.0005
774.1,-0.0000
774.0,-0.0006
773.9,-0.0008
773.8,0.0000
773.7,-0.0000
773.6,-0.0013
773.5,-0.0014
773.4,-0.0012
773.3,0.0003
773.2,-0.0008
773.1,-0.0008
773.0,-0.0005
772.9,-0.0010
772.8,-0.0005
772.7,-0.0006
772.6,-0.0012
772.5,-0.0013
772.4,-0.0009
772.3,-0.0008
772.2,-0.0006
772.1,-0.0007
772.0,-0.0012
771.9,-0.0012
771.8,-0.0004
771.7,-0.0005
771.6,-0.0013
771.5,-0.0008
771.4,-0.0013
771.3,-0.0015
771.2,-0.0017
771.1,-0.0007
771.0,-0.0006
770.9,-0.0016
770.8,-0.0007
770.7,-0.0000
770.6,-0.0009
770.5,-0.0009
770.4,-0.0019
770.3,-0.0010
770.2,-0.0007
770.1,0.0002
770.0,0.0005
769.9,-0.0003
769.8,-0.0002
769.7,-0.0006
769.6,-0.0005
769.5,0.0001
769.4,0.0000
769.3,-0.0003
769.2,-0.0004
769.1,-0.0002
769.0,0.0003
768.9,-0.0002
768.8,-0.0004
768.7,-0.0004
768.6,-0.0009
768.5,-0.0009
768.4,-0.0006
768.3,-0.0005
768.2,-0.0009
768.1,-0.0006
768.0,-0.0005
767.9,-0.0007
767.8,-0.0013
767.7,-0.0009
767.6,-0.0008
767.5,-0.0007
767.4,0.0005
767.3,0.0005
767.2,0.0003
767.1,-0.0005
767.0,-0.0011
766.9,-0.0008
766.8,-0.0002
766.7,-0.0005
766.6,-0.0004
766.5,0.0002
766.4,0.0001
766.3,0.0001
766.2,-0.0004
766.1,-0.0007
766.0,-0.0008
765.9,-0.0005
765.8,0.0003
765.7,-0.0004
765.6,-0.0003
765.5,0.0002
765.4,-0.0002
765.3,-0.0002
765.2,0.0001
765.1,0.0000
765.0,-0.0002
764.9,-0.0003
764.8,0.0000
764.7,-0.0002
764.6,-0.0007
764.5,-0.0005
764.4,-0.0002
764.3,-0.0004
764.2,-0.0005
764.1,-0.0000
764.0,0.0002
763.9,0.0001
763.8,0.0003
763.7,-0.0000
763.6,-0.0004
763.5,-0.0004
763.4,-0.0002
763.3,0.0003
763.2,0.0006
763.1,0.0002
763.0,0.0000
762.9,0.0004
762.8,0.0003
762.7,0.0008
762.6,0.0002
762.5,-0.0003
762.4,0.0005
762.3,0.0010
762.2,0.0004
762.1,-0.0004
762.0,0.0003
761.9,0.0008
761.8,0.0005
761.7,-0.0002
761.6,-0.0002
761.5,0.0002
761.4,-0.0003
761.3,0.0005
761.2,0.0003
761.1,0.0001
761.0,0.0002
760.9,0.0001
760.8,0.0009
760.7,0.0003
760.6,0.0009
760.5,-0.0000
760.4,-0.0003
760.3,0.0006
760.2,-0.0001
760.1,0.0001
760.0,0.0006
759.9,0.0004
759.8,0.0002
759.7,0.0004
759.6,-0.0001
759.5,0.0005
759.4,-0.0000
759.3,0.0001
759.2,0.0001
759.1,0.0004
759.0,-0.0002
758.9,0.0006
758.8,0.0007
758.7,0.0010
758.6,0.0006
758.5,0.0011
758.4,0.0012
758.3,0.0003
758.2,0.0008
758.1,0.0014
758.0,0.0010
757.9,-0.0001
757.8,0.0017
757.7,0.0009
757.6,-0.0000
757.5,0.0000
757.4,0.0007
757.3,-0.0002
757.2,0.0012
757.1,-0.0000
757.0,0.0007
756.9,0.0005
756.8,0.0000
756.7,-0.0006
756.6,0.0009
756.5,0.0010
756.4,0.0000
756.3,0.0004
756.2,0.0014
756.1,0.0009
756.0,-0.0002
755.9,-0.0001
755.8,0.0005
755.7,0.0005
755.6,0.0009
755.5,0.0010
755.4,0.0003
755.3,0.0002
755.2,0.0006
755.1,-0.0003
755.0,0.0010
754.9,-0.0003
754.8,0.0011
754.7,0.0006
754.6,0.0021
754.5,0.0007
754.4,-0.0000
754.3,0.0014
754.2,0.0014
754.1,0.0011
754.0,0.0013
753.9,0.0003
753.8,0.0002
753.7,0.0016
753.6,-0.0000
753.5,0.0008
753.4,0.0016
753.3,-0.0001
753.2,0.0004
753.1,0.0012
753.0,0.0003
752.9,0.0009
752.8,0.0008
752.7,0.0011
752.6,0.0007
752.5,0.0010
752.4,0.0009
752.3,0.0017
752.2,0.0003
752.1,0.0007
752.0,0.0006
751.9,0.0008
751.8,0.0007
751.7,0.0004
751.6,0.0007
751.5,0.0006
751.4,0.0000
751.3,0.0010
751.2,0.0005
751.1,0.0005
751.0,0.0015
750.9,0.0010
750.8,0.0006
750.7,0.0011
750.6,0.0006
750.5,0.0009
750.4,0.0018
750.3,0.0007
750.2,0.0003
750.1,0.0007
750.0,0.0009
749.9,0.0002
749.8,0.0009
749.7,0.0009
749.6,0.0009
749.5,0.0011
749.4,0.0010
749.3,0.0016
749.2,0.0018
749.1,0.0015
749.0,0.0009
748.9,0.0002
748.8,0.0001
748.7,0.0010
748.6,0.0007
748.5,0.0011
748.4,0.0009
748.3,0.0011
748.2,0.0013
748.1,0.0014
748.0,0.0002
747.9,0.0009
747.8,0.0017
747.7,0.0012
747.6,0.0017
747.5,0.0014
747.4,0.0014
747.3,0.0006
747.2,0.0008
747.1,0.0011
747.0,0.0010
746.9,0.0015
746.8,0.0007
746.7,0.0005
746.6,0.0012
746.5,0.0010
746.4,-0.0000
746.3,0.0003
746.2,0.0011
746.1,0.0004
746.0,0.0007
745.9,0.0017
745.8,0.0008
745.7,0.0005
745.6,0.0017
745.5,0.0013
745.4,0.0010
745.3,0.0014
745.2,0.0011
745.1,0.0011
745.0,0.0017
744.9,0.0010
744.8,0.0005
744.7,0.0010
744.6,0.0009
744.5,0.0008
744.4,0.0007
744.3,0.0004
744.2,0.0011
744.1,0.0018
744.0,0.0012
743.9,0.0006
743.8,0.0009
743.7,0.0014
743.6,0.0016
743.5,0.0018
743.4,0.0015
743.3,0.0014
743.2,0.0015
743.1,0.0009
743.0,0.0012
742.9,0.0009
742.8,0.0007
742.7,0.0009
742.6,0.0005
742.5,0.0006
742.4,0.0006
742.3,0.0013
742.2,0.0018
742.1,0.0009
742.0,0.0005
741.9,0.0007
741.8,0.0010
741.7,0.0010
741.6,0.0008
741.5,0.0010
741.4,0.0011
741.3,0.0014
741.2,0.0015
741.1,0.0009
741.0,0.0012
740.9,0.0012
740.8,0.0007
740.7,0.0007
740.6,0.0006
740.5,0.0011
740.4,0.0011
740.3,0.0009
740.2,0.0013
740.1,0.0010
740.0,0.0004
739.9,0.0007
739.8,0.0011
739.7,0.0012
739.6,0.0014
739.5,0.0011
739.4,0.0012
739.3,0.0008
739.2,0.0004
739.1,0.0008
739.0,0.0008
738.9,0.0012
738.8,0.0017
738.7,0.0014
738.6,0.0010
738.5,0.0005
738.4,0.0007
738.3,0.0015
738.2,0.0015
738.1,0.0013
738.0,0.0010
737.9,0.0009
737.8,0.0008
737.7,0.0007
737.6,0.0008
737.5,0.0007
737.4,0.0005
737.3,0.0006
737.2,0.0008
737.1,0.0009
737.0,0.0009
736.9,0.0013
736.8,0.0016
736.7,0.0009
736.6,0.0007
736.5,0.0010
736.4,0.0013
736.3,0.0006
736.2,0.0009
736.1,0.0009
736.0,0.0008
735.9,0.0003
735.8,0.0008
735.7,0.0012
735.6,0.0015
735.5,0.0011
735.4,0.0004
735.3,0.0009
735.2,0.0011
735.1,0.0010
735.0,0.0011
734.9,0.0007
734.8,0.0010
734.7,0.0011
734.6,0.0016
734.5,0.0012
734.4,0.0013
734.3,0.0013
734.2,0.0014
734.1,0.0007
734.0,0.0007
733.9,0.0008
733.8,0.0009
733.7,0.0011
733.6,0.0006
733.5,0.0010
733.4,0.0015
733.3,0.0010
733.2,0.0003
733.1,0.0008
733.0,0.0010
732.9,0.0007
732.8,0.0000
732.7,0.0009
732.6,0.0010
732.5,0.0014
732.4,0.0002
732.3,0.0005
732.2,0.0012
732.1,0.0006
732.0,0.0009
731.9,0.0005
731.8,0.0020
731.7,0.0012
731.6,0.0010
731.5,0.0009
731.4,0.0007
731.3,0.0013
731.2,0.0013
731.1,0.0011
731.0,-0.0001
730.9,0.0001
730.8,0.0014
730.7,0.0012
730.6,0.0002
730.5,0.0014
730.4,0.0010
730.3,0.0005
730.2,0.0012
730.1,0.0023
730.0,0.0005
729.9,0.0007
729.8,0.0005
729.7,0.0010
729.6,0.0012
729.5,0.0009
729.4,0.0007
729.3,0.0013
729.2,-0.0001
729.1,0.0007
729.0,0.0007
728.9,0.0002
728.8,0.0011
728.7,0.0016
728.6,0.0016
728.5,0.0012
728.4,0.0013
728.3,0.0010
728.2,0.0012
728.1,0.0015
728.0,0.0010
727.9,0.0007
727.8,0.0003
727.7,0.0016
727.6,0.0012
727.5,0.0010
727.4,0.0009
727.3,0.0010
727.2,0.0008
727.1,0.0015
727.0,0.0010
726.9,0.0008
726.8,0.0005
726.7,0.0011
726.6,0.0013
726.5,0.0005
726.4,0.0008
726.3,0.0013
726.2,0.0008
726.1,0.0015
726.0,0.0005
725.9,0.0011
725.8,0.0015
725.7,0.0014
725.6,0.0008
725.5,0.0004
725.4,0.0006
725.3,0.0009
725.2,0.0016
725.1,0.0015
725.0,0.0015
724.9,0.0010
724.8,0.0005
724.7,0.0008
724.6,0.0008
724.5,0.0007
724.4,0.0008
724.3,0.0009
724.2,0.0011
724.1,0.0010
724.0,0.0004
723.9,0.0010
723.8,0.0012
723.7,0.0011
723.6,0.0007
723.5,0.0016
723.4,0.0013
723.3,0.0014
723.2,0.0010
723.1,0.0013
723.0,0.0020
722.9,0.0016
722.8,0.0011
722.7,0.0011
722.6,0.0010
722.5,0.0010
722.4,0.0009
722.3,0.0012
722.2,0.0012
722.1,0.0017
722.0,0.0013
721.9,0.0009
721.8,0.0012
721.7,0.0012
721.6,0.0010
721.5,0.0010
721.4,0.0009
721.3,0.0006
721.2,0.0009
721.1,0.0012
721.0,0.0015
720.9,0.0014
720.8,0.0012
720.7,0.0005
720.6,0.0003
720.5,0.0005
720.4,0.0007
720.3,0.0013
720.2,0.0011
720.1,0.0008
720.0,0.0012
719.9,0.0011
719.8,0.0012
719.7,0.0013
719.6,0.0014
719.5,0.0015
719.4,0.0015
719.3,0.0011
719.2,0.0007
719.1,0.0013
719.0,0.0013
718.9,0.0010
718.8,0.0012
718.7,0.0016
718.6,0.0013
718.5,0.0011
718.4,0.0012
718.3,0.0010
718.2,0.0007
718.1,0.0008
718.0,0.0011
717.9,0.0014
717.8,0.0014
717.7,0.0013
717.6,0.0016
717.5,0.0015
717.4,0.0014
717.3,0.0014
717.2,0.0011
717.1,0.0014
717.0,0.0018
716.9,0.0017
716.8,0.0019
716.7,0.0017
716.6,0.0014
716.5,0.0013
716.4,0.0011
716.3,0.0009
716.2,0.0011
716.1,0.0011
716.0,0.0016
715.9,0.0019
715.8,0.0014
715.7,0.0017
715.6,0.0014
715.5,0.0018
715.4,0.0019
715.3,0.0015
715.2,0.0017
715.1,0.0018
715.0,0.0021
714.9,0.0021
714.8,0.0015
714.7,0.0016
714.6,0.0019
714.5,0.0017
714.4,0.0016
714.3,0.0022
714.2,0.0015
714.1,0.0014
714.0,0.0020
713.9,0.0014
713.8,0.0017
713.7,0.0013
713.6,0.0019
713.5,0.0021
713.4,0.0018
713.3,0.0020
713.2,0.0020
713.1,0.0025
713.0,0.0020
712.9,0.0022
712.8,0.0016
712.7,0.0019
712.6,0.0017
712.5,0.0016
712.4,0.0025
712.3,0.0020
712.2,0.0024
712.1,0.0016
712.0,0.0021
711.9,0.0024
711.8,0.0023
711.7,0.0020
711.6,0.0022
711.5,0.0025
711.4,0.0021
711.3,0.0020
711.2,0.0023
711.1,0.0024
711.0,0.0022
710.9,0.0019
710.8,0.0019
710.7,0.0025
710.6,0.0026
710.5,0.0025
710.4,0.0027
710.3,0.0025
710.2,0.0024
710.1,0.0027
710.0,0.0023
709.9,0.0021
709.8,0.0027
709.7,0.0024
709.6,0.0031
709.5,0.0022
709.4,0.0024
709.3,0.0028
709.2,0.0027
709.1,0.0024
709.0,0.0031
708.9,0.0021
708.8,0.0019
708.7,0.0028
708.6,0.0025
708.5,0.0024
708.4,0.0030
708.3,0.0022
708.2,0.0025
708.1,0.0020
708.0,0.0026
707.9,0.0027
707.8,0.0023
707.7,0.0030
707.6,0.0026
707.5,0.0028
707.4,0.0030
707.3,0.0029
707.2,0.0027
707.1,0.0027
707.0,0.0035
706.9,0.0028
706.8,0.0022
706.7,0.0028
706.6,0.0025
706.5,0.0023
706.4,0.0025
706.3,0.0025
706.2,0.0028
706.1,0.0025
706.0,0.0033
705.9,0.0033
705.8,0.0022
705.7,0.0023
705.6,0.0028
705.5,0.0033
705.4,0.0028
705.3,0.0033
705.2,0.0024
705.1,0.0023
705.0,0.0034
704.9,0.0029
704.8,0.0032
704.7,0.0030
704.6,0.0029
704.5,0.0029
704.4,0.0029
704.3,0.0034
704.2,0.0030
704.1,0.0030
704.0,0.0033
703.9,0.0028
703.8,0.0035
703.7,0.0030
703.6,0.0027
703.5,0.0031
703.4,0.0032
703.3,0.0028
703.2,0.0029
703.1,0.0029
703.0,0.0032
702.9,0.0029
702.8,0.0025
702.7,0.0029
702.6,0.0032
702.5,0.0030
702.4,0.0025
702.3,0.0034
702.2,0.0030
702.1,0.0032
702.0,0.0033
701.9,0.0036
701.8,0.0032
701.7,0.0040
701.6,0.0037
701.5,0.0032
701.4,0.0028
701.3,0.0031
701.2,0.0032
701.1,0.0033
701.0,0.0029
700.9,0.0033
700.8,0.0031
700.7,0.0027
700.6,0.0034
700.5,0.0036
700.4,0.0033
700.3,0.0038
700.2,0.0035
700.1,0.0031
700.0,0.0033
699.9,0.0036
699.8,0.0032
699.7,0.0027
699.6,0.0030
699.5,0.0031
699.4,0.0032
699.3,0.0029
699.2,0.0029
699.1,0.0032
699.0,0.0030
698.9,0.0031
698.8,0.0036
698.7,0.0038
698.6,0.0038
698.5,0.0037
698.4,0.0034
698.3,0.0033
698.2,0.0036
698.1,0.0036
698.0,0.0035
697.9,0.0033
697.8,0.0032
697.7,0.0032
697.6,0.0031
697.5,0.0034
697.4,0.0034
697.3,0.0032
697.2,0.0032
697.1,0.0035
697.0,0.0037
696.9,0.0033
696.8,0.0035
696.7,0.0034
696.6,0.0033
696.5,0.0039
696.4,0.0036
696.3,0.0029
696.2,0.0029
696.1,0.0031
696.0,0.0038
695.9,0.0036
695.8,0.0034
695.7,0.0033
695.6,0.0032
695.5,0.0034
695.4,0.0032
695.3,0.0029
695.2,0.0031
695.1,0.0031
695.0,0.0033
694.9,0.0034
694.8,0.0031
694.7,0.0032
694.6,0.0033
694.5,0.0031
694.4,0.0033
694.3,0.0038
694.2,0.0032
694.1,0.0027
694.0,0.0035
693.9,0.0036
693.8,0.0030
693.7,0.0028
693.6,0.0033
693.5,0.0035
693.4,0.0036
693.3,0.0037
693.2,0.0038
693.1,0.0037
693.0,0.0034
692.9,0.0037
692.8,0.0036
692.7,0.0036
692.6,0.0035
692.5,0.0034
692.4,0.0035
692.3,0.0034
692.2,0.0034
692.1,0.0039
692.0,0.0040
691.9,0.0039
691.8,0.0035
691.7,0.0038
691.6,0.0040
691.5,0.0039
691.4,0.0035
691.3,0.0033
691.2,0.0037
691.1,0.0037
691.0,0.0035
690.9,0.0037
690.8,0.0038
690.7,0.0039
690.6,0.0038
690.5,0.0041
690.4,0.0039
690.3,0.0044
690.2,0.0044
690.1,0.0040
690.0,0.0041
689.9,0.0039
689.8,0.0038
689.7,0.0037
689.6,0.0037
689.5,0.0037
689.4,0.0042
689.3,0.0044
689.2,0.0040
689.1,0.0039
689.0,0.0034
688.9,0.0038
688.8,0.0038
688.7,0.0038
688.6,0.0038
688.5,0.0042
688.4,0.0039
688.3,0.0039
688.2,0.0043
688.1,0.0044
688.0,0.0036
687.9,0.0033
687.8,0.0039
687.7,0.0042
687.6,0.0043
687.5,0.0039
687.4,0.0041
687.3,0.0043
687.2,0.0033
687.1,0.0036
687.0,0.0036
686.9,0.0042
686.8,0.0041
686.7,0.0041
686.6,0.0041
686.5,0.0040
686.4,0.0044
686.3,0.0046
686.2,0.0050
686.1,0.0041
686.0,0.0044
685.9,0.0041
685.8,0.0041
685.7,0.0045
685.6,0.0043
685.5,0.0050
685.4,0.0041
685.3,0.0046
685.2,0.0039
685.1,0.0043
685.0,0.0043
684.9,0.0044
684.8,0.0045
684.7,0.0050
684.6,0.0044
684.5,0.0039
684.4,0.0050
684.3,0.0052
684.2,0.0049
684.1,0.0047
684.0,0.0042
683.9,0.0048
683.8,0.0045
683.7,0.0043
683.6,0.0045
683.5,0.0047
683.4,0.0041
683.3,0.0041
683.2,0.0039
683.1,0.0040
683.0,0.0051
682.9,0.0050
682.8,0.0046
682.7,0.0047
682.6,0.0043
682.5,0.0046
682.4,0.0049
682.3,0.0041
682.2,0.0047
682.1,0.0043
682.0,0.0049
681.9,0.0052
681.8,0.0048
681.7,0.0051
681.6,0.0048
681.5,0.0046
681.4,0.0045
681.3,0.0042
681.2,0.0045
681.1,0.0046
681.0,0.0053
680.9,0.0046
680.8,0.0045
680.7,0.0048
680.6,0.0039
680.5,0.0049
680.4,0.0046
680.3,0.0047
680.2,0.0048
680.1,0.0053
680.0,0.0048
679.9,0.0051
679.8,0.0050
679.7,0.0050
679.6,0.0046
679.5,0.0050
679.4,0.0050
679.3,0.0052
679.2,0.0048
679.1,0.0050
679.0,0.0047
678.9,0.0051
678.8,0.0048
678.7,0.0051
678.6,0.0048
678.5,0.0055
678.4,0.0051
678.3,0.0050
678.2,0.0049
678.1,0.0055
678.0,0.0053
677.9,0.0054
677.8,0.0056
677.7,0.0054
677.6,0.0053
677.5,0.0052
677.4,0.0055
677.3,0.0051
677.2,0.0049
677.1,0.0049
677.0,0.0051
676.9,0.0048
676.8,0.0052
676.7,0.0053
676.6,0.0051
676.5,0.0056
676.4,0.0051
676.3,0.0050
676.2,0.0055
676.1,0.0056
676.0,0.0055
675.9,0.0058
675.8,0.0058
675.7,0.0055
675.6,0.0060
675.5,0.0056
675.4,0.0053
675.3,0.0057
675.2,0.0056
675.1,0.0055
675.0,0.0054
674.9,0.0054
674.8,0.0055
674.7,0.0057
674.6,0.0056
674.5,0.0056
674.4,0.0055
674.3,0.0058
674.2,0.0059
674.1,0.0057
674.0,0.0055
673.9,0.0056
673.8,0.0053
673.7,0.0055
673.6,0.0061
673.5,0.0062
673.4,0.0062
673.3,0.0058
673.2,0.0056
673.1,0.0057
673.0,0.0056
672.9,0.0054
672.8,0.0057
672.7,0.0059
672.6,0.0061
672.5,0.0060
672.4,0.0061
672.3,0.0060
672.2,0.0062
672.1,0.0062
672.0,0.0060
671.9,0.0062
671.8,0.0062
671.7,0.0058
671.6,0.0058
671.5,0.0062
671.4,0.0064
671.3,0.0064
671.2,0.0061
671.1,0.0061
671.0,0.0062
670.9,0.0062
670.8,0.0066
670.7,0.0066
670.6,0.0064
670.5,0.0061
670.4,0.0061
670.3,0.0061
670.2,0.0065
670.1,0.0065
670.0,0.0062
669.9,0.0062
669.8,0.0064
669.7,0.0063
669.6,0.0062
669.5,0.0064
669.4,0.0066
669.3,0.0066
669.2,0.0063
669.1,0.0066
669.0,0.0068
668.9,0.0070
668.8,0.0071
668.7,0.0071
668.6,0.0070
668.5,0.0066
668.4,0.0067
668.3,0.0070
668.2,0.0067
668.1,0.0069
668.0,0.0068
667.9,0.0066
667.8,0.0065
667.7,0.0067
667.6,0.0067
667.5,0.0067
667.4,0.0070
667.3,0.0068
667.2,0.0071
667.1,0.0066
667.0,0.0066
666.9,0.0069
666.8,0.0072
666.7,0.0068
666.6,0.0066
666.5,0.0068
666.4,0.0069
666.3,0.0069
666.2,0.0068
666.1,0.0071
666.0,0.0070
665.9,0.0071
665.8,0.0069
665.7,0.0073
665.6,0.0071
665.5,0.0067
665.4,0.0071
665.3,0.0069
665.2,0.0066
665.1,0.0064
665.0,0.0072
664.9,0.0071
664.8,0.0067
664.7,0.0070
664.6,0.0068
664.5,0.0062
664.4,0.0070
664.3,0.0071
664.2,0.0075
664.1,0.0071
664.0,0.0066
663.9,0.0068
663.8,0.0069
663.7,0.0070
663.6,0.0073
663.5,0.0072
663.4,0.0076
663.3,0.0073
663.2,0.0066
663.1,0.0069
663.0,0.0070
662.9,0.0069
662.8,0.0069
662.7,0.0072
662.6,0.0067
662.5,0.0072
662.4,0.0066
662.3,0.0074
662.2,0.0069
662.1,0.0068
662.0,0.0071
661.9,0.0072
661.8,0.0067
661.7,0.0072
661.6,0.0067
661.5,0.0071
661.4,0.0069
661.3,0.0066
661.2,0.0070
661.1,0.0072
661.0,0.0072
660.9,0.0069
660.8,0.0060
660.7,0.0067
660.6,0.0065
660.5,0.0071
660.4,0.0068
660.3,0.0070
660.2,0.0065
660.1,0.0066
660.0,0.0070
659.9,0.0070
659.8,0.0077
659.7,0.0071
659.6,0.0064
659.5,0.0065
659.4,0.0068
659.3,0.0066
659.2,0.0073
659.1,0.0073
659.0,0.0065
658.9,0.0066
658.8,0.0072
658.7,0.0069
658.6,0.0070
658.5,0.0070
658.4,0.0068
658.3,0.0067
658.2,0.0066
658.1,0.0069
658.0,0.0065
657.9,0.0072
657.8,0.0068
657.7,0.0068
657.6,0.0063
657.5,0.0064
657.4,0.0061
657.3,0.0061
657.2,0.0064
657.1,0.0065
657.0,0.0062
656.9,0.0064
656.8,0.0063
656.7,0.0065
656.6,0.0066
656.5,0.0064
656.4,0.0064
656.3,0.0069
656.2,0.0062
656.1,0.0066
656.0,0.0063
655.9,0.0061
655.8,0.0065
655.7,0.0061
655.6,0.0066
655.5,0.0068
655.4,0.0066
655.3,0.0063
655.2,0.0064
655.1,0.0063
655.0,0.0063
654.9,0.0062
654.8,0.0065
654.7,0.0062
654.6,0.0063
654.5,0.0058
654.4,0.0064
654.3,0.0065
654.2,0.0062
654.1,0.0058
654.0,0.0063
653.9,0.0065
653.8,0.0064
653.7,0.0061
653.6,0.0058
653.5,0.0061
653.4,0.0060
653.3,0.0056
653.2,0.0061
653.1,0.0063
653.0,0.0060
652.9,0.0060
652.8,0.0054
652.7,0.0058
652.6,0.0054
652.5,0.0052
652.4,0.0056
652.3,0.0062
652.2,0.0061
652.1,0.0059
652.0,0.0057
651.9,0.0056
651.8,0.0055
651.7,0.0058
651.6,0.0058
651.5,0.0057
651.4,0.0059
651.3,0.0061
651.2,0.0058
651.1,0.0061
651.0,0.0062
650.9,0.0057
650.8,0.0056
650.7,0.0057
650.6,0.0060
650.5,0.0059
650.4,0.0058
650.3,0.0053
650.2,0.0057
650.1,0.0061
650.0,0.0059
649.9,0.0054
649.8,0.0052
649.7,0.0056
649.6,0.0056
649.5,0.0054
649.4,0.0057
649.3,0.0056
649.2,0.0054
649.1,0.0054
649.0,0.0051
648.9,0.0051
648.8,0.0053
648.7,0.0053
648.6,0.0055
648.5,0.0053
648.4,0.0052
648.3,0.0053
648.2,0.0053
648.1,0.0053
648.0,0.0054
647.9,0.0056
647.8,0.0056
647.7,0.0056
647.6,0.0053
647.5,0.0052
647.4,0.0052
647.3,0.0052
647.2,0.0053
647.1,0.0053
647.0,0.0051
646.9,0.0049
646.8,0.0050
646.7,0.0050
646.6,0.0051
646.5,0.0052
646.4,0.0053
646.3,0.0052
646.2,0.0051
646.1,0.0052
646.0,0.0053
645.9,0.0052
645.8,0.0051
645.7,0.0049
645.6,0.0048
645.5,0.0052
645.4,0.0052
645.3,0.0051
645.2,0.0052
645.1,0.0051
645.0,0.0049
644.9,0.0049
644.8,0.0052
644.7,0.0050
644.6,0.0053
644.5,0.0052
644.4,0.0052
644.3,0.0051
644.2,0.0053
644.1,0.0054
644.0,0.0049
643.9,0.0045
643.8,0.0048
643.7,0.0047
643.6,0.0048
643.5,0.0049
643.4,0.0048
643.3,0.0049
643.2,0.0045
643.1,0.0046
643.0,0.0047
642.9,0.0049
642.8,0.0051
642.7,0.0050
642.6,0.0046
642.5,0.0051
642.4,0.0050
642.3,0.0049
642.2,0.0051
642.1,0.0048
642.0,0.0048
641.9,0.0052
641.8,0.0051
641.7,0.0054
641.6,0.0046
641.5,0.0052
641.4,0.0052
641.3,0.0054
641.2,0.0050
641.1,0.0049
641.0,0.0048
640.9,0.0052
640.8,0.0053
640.7,0.0047
640.6,0.0049
640.5,0.0048
640.4,0.0047
640.3,0.0049
640.2,0.0053
640.1,0.0049
640.0,0.0049
639.9,0.0040
639.8,0.0048
639.7,0.0042
639.6,0.0047
639.5,0.0049
639.4,0.0050
639.3,0.0047
639.2,0.0047
639.1,0.0047
639.0,0.0045
638.9,0.0046
638.8,0.0045
638.7,0.0047
638.6,0.0047
638.5,0.0044
638.4,0.0051
638.3,0.0052
638.2,0.0044
638.1,0.0047
638.0,0.0046
637.9,0.0048
637.8,0.0045
637.7,0.0052
637.6,0.0043
637.5,0.0048
637.4,0.0048
637.3,0.0053
637.2,0.0051
637.1,0.0051
637.0,0.0046
636.9,0.0047
636.8,0.0048
636.7,0.0047
636.6,0.0049
636.5,0.0049
636.4,0.0042
636.3,0.0045
636.2,0.0044
636.1,0.0047
636.0,0.0043
635.9,0.0049
635.8,0.0047
635.7,0.0048
635.6,0.0046
635.5,0.0044
635.4,0.0048
635.3,0.0043
635.2,0.0052
635.1,0.0039
635.0,0.0046
634.9,0.0048
634.8,0.0049
634.7,0.0049
634.6,0.0045
634.5,0.0048
634.4,0.0044
634.3,0.0052
634.2,0.0048
634.1,0.0040
634.0,0.0046
633.9,0.0042
633.8,0.0048
633.7,0.0048
633.6,0.0045
633.5,0.0049
633.4,0.0042
633.3,0.0042
633.2,0.0044
633.1,0.0042
633.0,0.0047
632.9,0.0046
632.8,0.0046
632.7,0.0042
632.6,0.0044
632.5,0.0041
632.4,0.0046
632.3,0.0047
632.2,0.0043
632.1,0.0046
632.0,0.0044
631.9,0.0049
631.8,0.0044
631.7,0.0041
631.6,0.0042
631.5,0.0046
631.4,0.0047
631.3,0.0045
631.2,0.0043
631.1,0.0044
631.0,0.0044
630.9,0.0046
630.8,0.0045
630.7,0.0041
630.6,0.0047
630.5,0.0038
630.4,0.0045
630.3,0.0044
630.2,0.0045
630.1,0.0047
630.0,0.0043
629.9,0.0044
629.8,0.0047
629.7,0.0047
629.6,0.0041
629.5,0.0045
629.4,0.0045
629.3,0.0041
629.2,0.0048
629.1,0.0047
629.0,0.0043
628.9,0.0046
628.8,0.0045
628.7,0.0044
628.6,0.0043
628.5,0.0042
628.4,0.0046
628.3,0.0043
628.2,0.0043
628.1,0.0045
628.0,0.0045
627.9,0.0044
627.8,0.0044
627.7,0.0041
627.6,0.0043
627.5,0.0043
627.4,0.0042
627.3,0.0045
627.2,0.0047
627.1,0.0046
627.0,0.0043
626.9,0.0042
626.8,0.0044
626.7,0.0045
626.6,0.0043
626.5,0.0044
626.4,0.0047
626.3,0.0045
626.2,0.0042
626.1,0.0042
626.0,0.0045
625.9,0.0047
625.8,0.0047
625.7,0.0043
625.6,0.0044
625.5,0.0045
625.4,0.0042
625.3,0.0040
625.2,0.0044
625.1,0.0043
625.0,0.0039
624.9,0.0042
624.8,0.0043
624.7,0.0042
624.6,0.0044
624.5,0.0045
624.4,0.0044
624.3,0.0042
624.2,0.0043
624.1,0.0044
624.0,0.0043
623.9,0.0046
623.8,0.0046
623.7,0.0041
623.6,0.0039
623.5,0.0041
623.4,0.0045
623.3,0.0040
623.2,0.0041
623.1,0.0045
623.0,0.0042
622.9,0.0040
622.8,0.0042
622.7,0.0040
622.6,0.0038
622.5,0.0039
622.4,0.0041
622.3,0.0041
622.2,0.0039
622.1,0.0039
622.0,0.0042
621.9,0.0042
621.8,0.0046
621.7,0.0047
621.6,0.0043
621.5,0.0043
621.4,0.0044
621.3,0.0046
621.2,0.0046
621.1,0.0046
621.0,0.0046
620.9,0.0048
620.8,0.0047
620.7,0.0044
620.6,0.0042
620.5,0.0045
620.4,0.0045
620.3,0.0045
620.2,0.0040
620.1,0.0040
620.0,0.0045
619.9,0.0043
619.8,0.0045
619.7,0.0041
619.6,0.0043
619.5,0.0040
619.4,0.0038
619.3,0.0040
619.2,0.0040
619.1,0.0042
619.0,0.0043
618.9,0.0044
618.8,0.0038
618.7,0.0043
618.6,0.0043
618.5,0.0041
618.4,0.0040
618.3,0.0039
618.2,0.0038
618.1,0.0043
618.0,0.0046
617.9,0.0041
617.8,0.0044
617.7,0.0042
617.6,0.0040
617.5,0.0041
617.4,0.0045
617.3,0.0044
617.2,0.0040
617.1,0.0041
617.0,0.0044
616.9,0.0040
616.8,0.0036
616.7,0.0041
616.6,0.0038
616.5,0.0040
616.4,0.0037
616.3,0.0037
616.2,0.0039
616.1,0.0044
616.0,0.0037
615.9,0.0037
615.8,0.0034
615.7,0.0040
615.6,0.0040
615.5,0.0040
615.4,0.0036
615.3,0.0039
615.2,0.0038
615.1,0.0043
615.0,0.0036
614.9,0.0035
614.8,0.0042
614.7,0.0037
614.6,0.0036
614.5,0.0039
614.4,0.0038
614.3,0.0034
614.2,0.0039
614.1,0.0036
614.0,0.0039
613.9,0.0037
613.8,0.0036
613.7,0.0039
613.6,0.0032
613.5,0.0030
613.4,0.0035
613.3,0.0036
613.2,0.0038
613.1,0.0033
613.0,0.0030
612.9,0.0041
612.8,0.0038
612.7,0.0036
612.6,0.0034
612.5,0.0040
612.4,0.0034
612.3,0.0031
612.2,0.0035
612.1,0.0037
612.0,0.0036
611.9,0.0033
611.8,0.0033
611.7,0.0033
611.6,0.0032
611.5,0.0028
611.4,0.0035
611.3,0.0034
611.2,0.0033
611.1,0.0032
611.0,0.0033
610.9,0.0035
610.8,0.0030
610.7,0.0034
610.6,0.0031
610.5,0.0031
610.4,0.0033
610.3,0.0031
610.2,0.0031
610.1,0.0030
610.0,0.0032
609.9,0.0026
609.8,0.0030
609.7,0.0030
609.6,0.0027
609.5,0.0029
609.4,0.0029
609.3,0.0030
609.2,0.0033
609.1,0.0029
609.0,0.0031
608.9,0.0029
608.8,0.0027
608.7,0.0022
608.6,0.0025
608.5,0.0024
608.4,0.0026
608.3,0.0030
608.2,0.0031
608.1,0.0026
608.0,0.0029
607.9,0.0027
607.8,0.0024
607.7,0.0022
607.6,0.0027
607.5,0.0025
607.4,0.0025
607.3,0.0022
607.2,0.0024
607.1,0.0026
607.0,0.0021
606.9,0.0024
606.8,0.0026
606.7,0.0026
606.6,0.0025
606.5,0.0023
606.4,0.0021
606.3,0.0025
606.2,0.0025
606.1,0.0024
606.0,0.0024
605.9,0.0020
605.8,0.0022
605.7,0.0022
605.6,0.0022
605.5,0.0022
605.4,0.0023
605.3,0.0023
605.2,0.0025
605.1,0.0022
605.0,0.0024
604.9,0.0023
604.8,0.0021
604.7,0.0020
604.6,0.0021
604.5,0.0019
604.4,0.0019
604.3,0.0020
604.2,0.0020
604.1,0.0016
604.0,0.0018
603.9,0.0021
603.8,0.0021
603.7,0.0019
603.6,0.0018
603.5,0.0018
603.4,0.0020
603.3,0.0021
603.2,0.0019
603.1,0.0017
603.0,0.0017
602.9,0.0016
602.8,0.0014
602.7,0.0019
602.6,0.0018
602.5,0.0017
602.4,0.0017
602.3,0.0015
602.2,0.0015
602.1,0.0015
602.0,0.0018
601.9,0.0016
601.8,0.0014
601.7,0.0015
601.6,0.0013
601.5,0.0013
601.4,0.0013
601.3,0.0012
601.2,0.0010
601.1,0.0011
601.0,0.0012
600.9,0.0010
600.8,0.0012
600.7,0.0012
600.6,0.0010
600.5,0.0010
600.4,0.0010
600.3,0.0010
600.2,0.0010
600.1,0.0011
600.0,0.0013
599.9,0.0014
599.8,0.0010
599.7,0.0009
599.6,0.0011
599.5,0.0009
599.4,0.0006
599.3,0.0008
599.2,0.0009
599.1,0.0008
599.0,0.0007
598.9,0.0009
598.8,0.0009
598.7,0.0005
598.6,0.0010
598.5,0.0011
598.4,0.0006
598.3,0.0005
598.2,0.0007
598.1,0.0006
598.0,0.0005
597.9,0.0007
597.8,0.0005
597.7,0.0007
597.6,0.0008
597.5,0.0009
597.4,0.0005
597.3,0.0002
597.2,0.0002
597.1,0.0002
597.0,0.0002
596.9,0.0003
596.8,0.0003
596.7,0.0003
596.6,0.0001
596.5,-0.0003
596.4,0.0001
596.3,-0.0002
596.2,0.0001
596.1,0.0003
596.0,0.0002
595.9,0.0002
595.8,0.0002
595.7,0.0003
595.6,0.0002
595.5,0.0002
595.4,0.0001
595.3,-0.0001
595.2,-0.0003
595.1,-0.0000
595.0,0.0001
594.9,-0.0003
594.8,-0.0001
594.7,-0.0001
594.6,-0.0006
594.5,-0.0003
594.4,-0.0001
594.3,-0.0000
594.2,-0.0002
594.1,-0.0003
594.0,-0.0005
593.9,-0.0004
593.8,-0.0004
593.7,-0.0003
593.6,-0.0007
593.5,-0.0004
593.4,-0.0006
593.3,-0.0004
593.2,-0.0006
593.1,-0.0009
593.0,-0.0007
592.9,-0.0005
592.8,-0.0004
592.7,-0.0005
592.6,-0.0010
592.5,-0.0009
592.4,-0.0008
592.3,-0.0008
592.2,-0.0008
592.1,-0.0005
592.0,-0.0006
591.9,-0.0008
591.8,-0.0010
591.7,-0.0009
591.6,-0.0008
591.5,-0.0007
591.4,-0.0011
591.3,-0.0007
591.2,-0.0011
591.1,-0.0007
591.0,-0.0016
590.9,-0.0010
590.8,-0.0011
590.7,-0.0014
590.6,-0.0009
590.5,-0.0010
590.4,-0.0017
590.3,-0.0013
590.2,-0.0011
590.1,-0.0013
590.0,-0.0009
589.9,-0.0011
589.8,-0.0013
589.7,-0.0014
589.6,-0.0013
589.5,-0.0013
589.4,-0.0016
589.3,-0.0007
589.2,-0.0016
589.1,-0.0017
589.0,-0.0015
588.9,-0.0014
588.8,-0.0017
588.7,-0.0013
588.6,-0.0018
588.5,-0.0017
588.4,-0.0017
588.3,-0.0016
588.2,-0.0020
588.1,-0.0017
588.0,-0.0015
587.9,-0.0020
587.8,-0.0016
587.7,-0.0019
587.6,-0.0014
587.5,-0.0017
587.4,-0.0021
587.3,-0.0016
587.2,-0.0019
587.1,-0.0020
587.0,-0.0022
586.9,-0.0021
586.8,-0.0021
586.7,-0.0019
586.6,-0.0024
586.5,-0.0025
586.4,-0.0021
586.3,-0.0022
586.2,-0.0023
586.1,-0.0022
586.0,-0.0024
585.9,-0.0024
585.8,-0.0025
585.7,-0.0024
585.6,-0.0025
585.5,-0.0023
585.4,-0.0027
585.3,-0.0029
585.2,-0.0027
585.1,-0.0029
585.0,-0.0027
584.9,-0.0025
584.8,-0.0024
584.7,-0.0026
584.6,-0.0028
584.5,-0.0025
584.4,-0.0025
584.3,-0.0029
584.2,-0.0029
584.1,-0.0028
584.0,-0.0029
583.9,-0.0028
583.8,-0.0029
583.7,-0.0028
583.6,-0.0026
583.5,-0.0025
583.4,-0.0024
583.3,-0.0027
583.2,-0.0028
583.1,-0.0027
583.0,-0.0030
582.9,-0.0030
582.8,-0.0031
582.7,-0.0030
582.6,-0.0030
582.5,-0.0033
582.4,-0.0030
582.3,-0.0032
582.2,-0.0034
582.1,-0.0033
582.0,-0.0031
581.9,-0.0031
581.8,-0.0033
581.7,-0.0032
581.6,-0.0034
581.5,-0.0031
581.4,-0.0034
581.3,-0.0033
581.2,-0.0036
581.1,-0.0036
581.0,-0.0034
580.9,-0.0031
580.8,-0.0035
580.7,-0.0036
580.6,-0.0036
580.5,-0.0034
580.4,-0.0035
580.3,-0.0037
580.2,-0.0038
580.1,-0.0038
580.0,-0.0037
