Created as New Dataset,
nm,A
800.0,-0.0002
799.9,0.0008
799.8,0.0024
799.7,0.0009
799.6,-0.0001
799.5,0.0004
799.4,0.0006
799.3,0.0011
799.2,0.0004
799.1,-0.0009
799.0,0.0004
798.9,-0.0015
798.8,0.0012
798.7,0.0007
798.6,0.0002
798.5,0.0002
798.4,0.0009
798.3,0.0012
798.2,0.0001
798.1,0.0002
798.0,0.0000
797.9,-0.0003
797.8,0.0012
797.7,-0.0006
797.6,-0.0006
797.5,-0.0008
797.4,-0.0006
797.3,-0.0000
797.2,0.0017
797.1,0.0018
797.0,0.0014
796.9,-0.0003
796.8,0.0007
796.7,0.0003
796.6,0.0005
796.5,0.0014
796.4,0.0013
796.3,-0.0000
796.2,-0.0003
796.1,0.0002
796.0,0.0006
795.9,0.0000
795.8,-0.0001
795.7,0.0004
795.6,-0.0000
795.5,-0.0003
795.4,-0.0008
795.3,0.0006
795.2,0.0004
795.1,0.0007
795.0,0.0000
794.9,0.0003
794.8,0.0001
794.7,0.0003
794.6,0.0007
794.5,0.0004
794.4,0.0004
794.3,0.0014
794.2,0.0009
794.1,0.0003
794.0,-0.0000
793.9,0.0008
793.8,0.0006
793.7,0.0001
793.6,-0.0002
793.5,-0.0007
793.4,-0.0008
793.3,0.0003
793.2,0.0001
793.1,0.0004
793.0,0.0004
792.9,0.0007
792.8,0.0007
792.7,-0.0002
792.6,0.0001
792.5,0.0007
792.4,0.0007
792.3,0.0008
792.2,0.0011
792.1,0.0004
792.0,0.0003
791.9,0.0013
791.8,0.0006
791.7,0.0003
791.6,0.0008
791.5,-0.0005
791.4,-0.0003
791.3,-0.0001
791.2,0.0002
791.1,0.0001
791.0,0.0002
790.9,-0.0002
790.8,0.0002
790.7,0.0006
790.6,0.0001
790.5,-0.0000
790.4,0.0003
790.3,0.0014
790.2,0.0016
790.1,0.0004
790.0,0.0002
789.9,-0.0000
789.8,0.0001
789.7,-0.0002
789.6,0.0001
789.5,0.0013
789.4,0.0011
789.3,0.0003
789.2,0.0004
789.1,0.0010
789.0,0.0009
788.9,-0.0002
788.8,-0.0002
788.7,0.0005
788.6,0.0000
788.5,0.0003
788.4,0.0002
788.3,-0.0005
788.2,-0.0006
788.1,-0.0003
788.0,0.0003
787.9,-0.0005
787.8,-0.0002
787.7,0.0009
787.6,0.0007
787.5,0.0001
787.4,0.0003
787.3,0.0003
787.2,0.0000
787.1,-0.0001
787.0,0.0005
786.9,0.0015
786.8,0.0010
786.7,0.0009
786.6,-0.0001
786.5,0.0001
786.4,0.0003
786.3,0.0000
786.2,0.0002
786.1,-0.0004
786.0,-0.0002
785.9,0.0004
785.8,-0.0004
785.7,-0.0009
785.6,-0.0004
785.5,0.0002
785.4,-0.0004
785.3,-0.0001
785.2,-0.0003
785.1,-0.0005
785.0,-0.0002
784.9,-0.0006
784.8,0.0002
784.7,-0.0001
784.6,0.0002
784.5,0.0008
784.4,0.0010
784.3,0.0004
784.2,0.0001
784.1,0.0002
784.0,0.0004
783.9,0.0015
783.8,0.0004
783.7,0.0007
783.6,0.0005
783.5,0.0005
783.4,0.0005
783.3,-0.0003
783.2,0.0002
783.1,0.0005
783.0,0.0004
782.9,-0.0006
782.8,-0.0000
782.7,-0.0003
782.6,0.0002
782.5,0.0013
782.4,0.0007
782.3,-0.0001
782.2,0.0003
782.1,0.0005
782.0,0.0009
781.9,0.0007
781.8,0.0014
781.7,0.0004
781.6,-0.0003
781.5,-0.0009
781.4,-0.0006
781.3,0.0006
781.2,-0.0003
781.1,-0.0004
781.0,-0.0000
780.9,0.0002
780.8,-0.0002
780.7,0.0005
780.6,0.0011
780.5,0.0007
780.4,-0.0004
780.3,-0.0006
780.2,0.0006
780.1,0.0004
780.0,0.0003
779.9,0.0011
779.8,0.0017
779.7,0.0006
779.6,0.0005
779.5,0.0009
779.4,0.0009
779.3,-0.0001
779.2,0.0011
779.1,0.0014
779.0,0.0004
778.9,0.0008
778.8,0.0004
778.7,0.0007
778.6,0.0001
778.5,0.0006
778.4,0.0001
778.3,0.0010
778.2,0.0007
778.1,-0.0003
778.0,0.0001
777.9,0.0010
777.8,-0.0001
777.7,-0.0007
777.6,0.0004
777.5,0.0005
777.4,0.0007
777.3,0.0007
777.2,0.0013
777.1,0.0010
777.0,0.0007
776.9,0.0007
776.8,0.0007
776.7,0.0013
776.6,0.0006
776.5,-0.0001
776.4,-0.0001
776.3,0.0001
776.2,-0.0004
776.1,-0.0004
776.0,-0.0002
775.9,0.0008
775.8,0.0011
775.7,0.0003
775.6,-0.0004
775.5,0.0004
775.4,0.0004
775.3,0.0015
775.2,0.0007
775.1,0.0011
775.0,0.0001
774.9,0.0002
774.8,0.0001
774.7,-0.0000
774.6,0.0018
774.5,0.0008
774.4,-0.0003
774.3,0.0000
774.2,0.0003
774.1,0.0005
774.0,0.0009
773.9,-0.0002
773.8,0.0003
773.7,0.0005
773.6,0.0002
773.5,0.0001
773.4,0.0002
773.3,0.0013
773.2,0.0009
773.1,0.0007
773.0,-0.0001
772.9,0.0000
772.8,0.0009
772.7,0.0005
772.6,0.0005
772.5,0.0010
772.4,0.0008
772.3,0.0003
772.2,0.0001
772.1,0.0009
772.0,0.0010
771.9,-0.0001
771.8,0.0007
771.7,0.0005
771.6,0.0002
771.5,0.0006
771.4,-0.0004
771.3,-0.0002
771.2,-0.0000
771.1,0.0006
771.0,0.0007
770.9,0.0002
770.8,0.0005
770.7,0.0006
770.6,0.0004
770.5,0.0009
770.4,-0.0004
770.3,-0.0001
770.2,0.0002
770.1,0.0011
770.0,0.0014
769.9,0.0003
769.8,0.0004
769.7,0.0010
769.6,0.0001
769.5,0.0007
769.4,0.0011
769.3,0.0002
769.2,0.0011
769.1,0.0015
769.0,0.0014
768.9,0.0017
768.8,0.0015
768.7,0.0011
768.6,0.0007
768.5,0.0005
768.4,0.0007
768.3,0.0008
768.2,0.0002
768.1,0.0011
768.0,0.0014
767.9,0.0009
767.8,0.0001
767.7,0.0002
767.6,0.0007
767.5,0.0009
767.4,0.0012
767.3,0.0010
767.2,0.0012
767.1,0.0008
767.0,-0.0004
766.9,-0.0004
766.8,0.0008
766.7,0.0009
766.6,0.0012
766.5,0.0012
766.4,0.0010
766.3,0.0012
766.2,0.0008
766.1,0.0007
766.0,0.0005
765.9,0.0004
765.8,0.0005
765.7,0.0004
765.6,0.0002
765.5,0.0004
765.4,0.0011
765.3,0.0013
765.2,0.0013
765.1,0.0015
765.0,0.0015
764.9,0.0011
764.8,0.0007
764.7,0.0008
764.6,0.0007
764.5,0.0003
764.4,0.0007
764.3,0.0008
764.2,0.0003
764.1,0.0006
764.0,0.0008
763.9,0.0012
763.8,0.0011
763.7,0.0006
763.6,0.0003
763.5,0.0014
763.4,0.0011
763.3,0.0010
763.2,0.0014
763.1,0.0017
763.0,0.0015
762.9,0.0010
762.8,0.0016
762.7,0.0018
762.6,0.0019
762.5,0.0017
762.4,0.0011
762.3,0.0017
762.2,0.0019
762.1,0.0011
762.0,0.0016
761.9,0.0020
761.8,0.0015
761.7,0.0014
761.6,0.0018
761.5,0.0016
761.4,0.0016
761.3,0.0017
761.2,0.0010
761.1,0.0015
761.0,0.0017
760.9,0.0013
760.8,0.0015
760.7,0.0010
760.6,0.0016
760.5,0.0019
760.4,0.0014
760.3,0.0010
760.2,0.0005
760.1,0.0011
760.0,0.0020
759.9,0.0016
759.8,0.0014
759.7,0.0016
759.6,0.0014
759.5,0.0016
759.4,0.0007
759.3,0.0014
759.2,0.0019
759.1,0.0018
759.0,0.0009
758.9,0.0018
758.8,0.0017
758.7,0.0016
758.6,0.0014
758.5,0.0019
758.4,0.0022
758.3,0.0014
758.2,0.0017
758.1,0.0017
758.0,0.0019
757.9,0.0016
757.8,0.0020
757.7,0.0015
757.6,0.0009
757.5,0.0013
757.4,0.0014
757.3,0.0008
757.2,0.0025
757.1,0.0009
757.0,0.0018
756.9,0.0014
756.8,0.0017
756.7,0.0009
756.6,0.0020
756.5,0.0025
756.4,0.0017
756.3,0.0023
756.2,0.0018
756.1,0.0015
756.0,0.0009
755.9,0.0007
755.8,0.0016
755.7,0.0017
755.6,0.0016
755.5,0.0024
755.4,0.0016
755.3,0.0014
755.2,0.0012
755.1,0.0004
755.0,0.0013
754.9,0.0018
754.8,0.0024
754.7,0.0022
754.6,0.0040
754.5,0.0022
754.4,0.0021
754.3,0.0024
754.2,0.0017
754.1,0.0019
754.0,0.0025
753.9,0.0019
753.8,0.0017
753.7,0.0029
753.6,0.0014
753.5,0.0017
753.4,0.0020
753.3,0.0012
753.2,0.0015
753.1,0.0021
753.0,0.0013
752.9,0.0017
752.8,0.0022
752.7,0.0021
752.6,0.0028
752.5,0.0018
752.4,0.0021
752.3,0.0027
752.2,0.0021
752.1,0.0020
752.0,0.0018
751.9,0.0021
751.8,0.0015
751.7,0.0012
751.6,0.0018
751.5,0.0017
751.4,0.0016
751.3,0.0018
751.2,0.0018
751.1,0.0017
751.0,0.0016
750.9,0.0010
750.8,0.0016
750.7,0.0015
750.6,0.0022
750.5,0.0015
750.4,0.0022
750.3,0.0020
750.2,0.0015
750.1,0.0010
750.0,0.0022
749.9,0.0013
749.8,0.0023
749.7,0.0022
749.6,0.0017
749.5,0.0024
749.4,0.0022
749.3,0.0022
749.2,0.0016
749.1,0.0021
749.0,0.0016
748.9,0.0017
748.8,0.0019
748.7,0.0022
748.6,0.0019
748.5,0.0024
748.4,0.0019
748.3,0.0023
748.2,0.0018
748.1,0.0014
748.0,0.0009
747.9,0.0016
747.8,0.0023
747.7,0.0022
747.6,0.0030
747.5,0.0033
747.4,0.0031
747.3,0.0025
747.2,0.0025
747.1,0.0028
747.0,0.0025
746.9,0.0020
746.8,0.0016
746.7,0.0019
746.6,0.0024
746.5,0.0022
746.4,0.0019
746.3,0.0010
746.2,0.0014
746.1,0.0012
746.0,0.0017
745.9,0.0022
745.8,0.0016
745.7,0.0014
745.6,0.0025
745.5,0.0026
745.4,0.0025
745.3,0.0026
745.2,0.0020
745.1,0.0020
745.0,0.0026
744.9,0.0022
744.8,0.0022
744.7,0.0028
744.6,0.0022
744.5,0.0018
744.4,0.0017
744.3,0.0021
744.2,0.0022
744.1,0.0023
744.0,0.0020
743.9,0.0020
743.8,0.0021
743.7,0.0025
743.6,0.0024
743.5,0.0018
743.4,0.0021
743.3,0.0028
743.2,0.0024
743.1,0.0024
743.0,0.0021
742.9,0.0015
742.8,0.0017
742.7,0.0021
742.6,0.0022
742.5,0.0025
742.4,0.0025
742.3,0.0027
742.2,0.0029
742.1,0.0024
742.0,0.0020
741.9,0.0021
741.8,0.0021
741.7,0.0022
741.6,0.0024
741.5,0.0022
741.4,0.0020
741.3,0.0021
741.2,0.0022
741.1,0.0021
741.0,0.0027
740.9,0.0026
740.8,0.0020
740.7,0.0017
740.6,0.0020
740.5,0.0026
740.4,0.0023
740.3,0.0021
740.2,0.0025
740.1,0.0027
740.0,0.0016
739.9,0.0018
739.8,0.0024
739.7,0.0023
739.6,0.0027
739.5,0.0019
739.4,0.0015
739.3,0.0014
739.2,0.0014
739.1,0.0018
739.0,0.0015
738.9,0.0019
738.8,0.0026
738.7,0.0024
738.6,0.0023
738.5,0.0018
738.4,0.0020
738.3,0.0025
738.2,0.0023
738.1,0.0023
738.0,0.0024
737.9,0.0022
737.8,0.0019
737.7,0.0018
737.6,0.0020
737.5,0.0020
737.4,0.0020
737.3,0.0019
737.2,0.0027
737.1,0.0023
737.0,0.0020
736.9,0.0019
736.8,0.0018
736.7,0.0023
736.6,0.0021
736.5,0.0026
736.4,0.0029
736.3,0.0020
736.2,0.0013
736.1,0.0014
736.0,0.0023
735.9,0.0021
735.8,0.0020
735.7,0.0023
735.6,0.0025
735.5,0.0019
735.4,0.0017
735.3,0.0023
735.2,0.0022
735.1,0.0020
735.0,0.0024
734.9,0.0023
734.8,0.0023
734.7,0.0019
734.6,0.0020
734.5,0.0026
734.4,0.0026
734.3,0.0019
734.2,0.0020
734.1,0.0015
734.0,0.0006
733.9,0.0015
733.8,0.0024
733.7,0.0024
733.6,0.0017
733.5,0.0018
733.4,0.0024
733.3,0.0015
733.2,0.0018
733.1,0.0024
733.0,0.0023
732.9,0.0023
732.8,0.0015
732.7,0.0016
732.6,0.0020
732.5,0.0025
732.4,0.0017
732.3,0.0023
732.2,0.0023
732.1,0.0015
732.0,0.0020
731.9,0.0026
731.8,0.0024
731.7,0.0019
731.6,0.0023
731.5,0.0021
731.4,0.0015
731.3,0.0022
731.2,0.0025
731.1,0.0026
731.0,0.0014
730.9,0.0015
730.8,0.0025
730.7,0.0019
730.6,0.0016
730.5,0.0022
730.4,0.0021
730.3,0.0020
730.2,0.0022
730.1,0.0033
730.0,0.0019
729.9,0.0014
729.8,0.0013
729.7,0.0022
729.6,0.0025
729.5,0.0029
729.4,0.0021
729.3,0.0026
729.2,0.0014
729.1,0.0020
729.0,0.0024
728.9,0.0015
728.8,0.0023
728.7,0.0017
728.6,0.0018
728.5,0.0023
728.4,0.0020
728.3,0.0017
728.2,0.0017
728.1,0.0026
728.0,0.0029
727.9,0.0020
727.8,0.0023
727.7,0.0028
727.6,0.0020
727.5,0.0024
727.4,0.0020
727.3,0.0020
727.2,0.0022
727.1,0.0022
727.0,0.0018
726.9,0.0018
726.8,0.0021
726.7,0.0028
726.6,0.0025
726.5,0.0016
726.4,0.0017
726.3,0.0024
726.2,0.0020
726.1,0.0022
726.0,0.0018
725.9,0.0021
725.8,0.0027
725.7,0.0018
725.6,0.0017
725.5,0.0024
725.4,0.0021
725.3,0.0025
725.2,0.0029
725.1,0.0018
725.0,0.0023
724.9,0.0019
724.8,0.0018
724.7,0.0020
724.6,0.0023
724.5,0.0025
724.4,0.0016
724.3,0.0017
724.2,0.0023
724.1,0.0027
724.0,0.0019
723.9,0.0021
723.8,0.0019
723.7,0.0020
723.6,0.0023
723.5,0.0022
723.4,0.0017
723.3,0.0025
723.2,0.0020
723.1,0.0025
723.0,0.0025
722.9,0.0024
722.8,0.0021
722.7,0.0020
722.6,0.0019
722.5,0.0020
722.4,0.0023
722.3,0.0029
722.2,0.0024
722.1,0.0028
722.0,0.0025
721.9,0.0019
721.8,0.0023
721.7,0.0023
721.6,0.0024
721.5,0.0023
721.4,0.0023
721.3,0.0021
721.2,0.0026
721.1,0.0024
721.0,0.0022
720.9,0.0022
720.8,0.0022
720.7,0.0020
720.6,0.0023
720.5,0.0027
720.4,0.0022
720.3,0.0023
720.2,0.0022
720.1,0.0020
720.0,0.0019
719.9,0.0021
719.8,0.0022
719.7,0.0024
719.6,0.0027
719.5,0.0026
719.4,0.0026
719.3,0.0023
719.2,0.0021
719.1,0.0023
719.0,0.0024
718.9,0.0023
718.8,0.0025
718.7,0.0028
718.6,0.0026
718.5,0.0026
718.4,0.0024
718.3,0.0023
718.2,0.0022
718.1,0.0022
718.0,0.0026
717.9,0.0030
717.8,0.0033
717.7,0.0026
717.6,0.0023
717.5,0.0023
717.4,0.0023
717.3,0.0024
717.2,0.0023
717.1,0.0027
717.0,0.0032
716.9,0.0030
716.8,0.0028
716.7,0.0032
716.6,0.0033
716.5,0.0030
716.4,0.0026
716.3,0.0026
716.2,0.0026
716.1,0.0026
716.0,0.0034
715.9,0.0031
715.8,0.0026
715.7,0.0030
715.6,0.0026
715.5,0.0030
715.4,0.0032
715.3,0.0026
715.2,0.0030
715.1,0.0026
715.0,0.0028
714.9,0.0031
714.8,0.0032
714.7,0.0032
714.6,0.0030
714.5,0.0032
714.4,0.0027
714.3,0.0029
714.2,0.0029
714.1,0.0027
714.0,0.0028
713.9,0.0026
713.8,0.0032
713.7,0.0028
713.6,0.0028
713.5,0.0029
713.4,0.0032
713.3,0.0032
713.2,0.0035
713.1,0.0034
713.0,0.0030
712.9,0.0033
712.8,0.0033
712.7,0.0034
712.6,0.0031
712.5,0.0030
712.4,0.0033
712.3,0.0032
712.2,0.0035
712.1,0.0031
712.0,0.0035
711.9,0.0029
711.8,0.0030
711.7,0.0035
711.6,0.0036
711.5,0.0036
711.4,0.0031
711.3,0.0028
711.2,0.0038
711.1,0.0039
711.0,0.0037
710.9,0.0037
710.8,0.0038
710.7,0.0030
710.6,0.0039
710.5,0.0034
710.4,0.0039
710.3,0.0033
710.2,0.0042
710.1,0.0045
710.0,0.0034
709.9,0.0035
709.8,0.0037
709.7,0.0041
709.6,0.0040
709.5,0.0035
709.4,0.0033
709.3,0.0046
709.2,0.0040
709.1,0.0034
709.0,0.0041
708.9,0.0036
708.8,0.0033
708.7,0.0039
708.6,0.0042
708.5,0.0043
708.4,0.0042
708.3,0.0036
708.2,0.0036
708.1,0.0037
708.0,0.0043
707.9,0.0037
707.8,0.0035
707.7,0.0038
707.6,0.0047
707.5,0.0042
707.4,0.0038
707.3,0.0043
707.2,0.0039
707.1,0.0035
707.0,0.0036
706.9,0.0037
706.8,0.0034
706.7,0.0040
706.6,0.0041
706.5,0.0037
706.4,0.0041
706.3,0.0038
706.2,0.0042
706.1,0.0040
706.0,0.0044
705.9,0.0044
705.8,0.0030
705.7,0.0038
705.6,0.0040
705.5,0.0045
705.4,0.0041
705.3,0.0042
705.2,0.0047
705.1,0.0041
705.0,0.0049
704.9,0.0043
704.8,0.0043
704.7,0.0039
704.6,0.0037
704.5,0.0039
704.4,0.0043
704.3,0.0043
704.2,0.0042
704.1,0.0041
704.0,0.0041
703.9,0.0040
703.8,0.0044
703.7,0.0044
703.6,0.0043
703.5,0.0041
703.4,0.0042
703.3,0.0038
703.2,0.0041
703.1,0.0046
703.0,0.0045
702.9,0.0043
702.8,0.0039
702.7,0.0045
702.6,0.0047
702.5,0.0048
702.4,0.0042
702.3,0.0044
702.2,0.0044
702.1,0.0044
702.0,0.0045
701.9,0.0049
701.8,0.0045
701.7,0.0050
701.6,0.0050
701.5,0.0045
701.4,0.0047
701.3,0.0045
701.2,0.0043
701.1,0.0051
701.0,0.0042
700.9,0.0045
700.8,0.0045
700.7,0.0045
700.6,0.0049
700.5,0.0051
700.4,0.0042
700.3,0.0046
700.2,0.0044
700.1,0.0045
700.0,0.0045
699.9,0.0049
699.8,0.0052
699.7,0.0040
699.6,0.0044
699.5,0.0049
699.4,0.0049
699.3,0.0043
699.2,0.0040
699.1,0.0043
699.0,0.0042
698.9,0.0043
698.8,0.0049
698.7,0.0049
698.6,0.0051
698.5,0.0051
698.4,0.0045
698.3,0.0046
698.2,0.0047
698.1,0.0047
698.0,0.0053
697.9,0.0049
697.8,0.0046
697.7,0.0050
697.6,0.0050
697.5,0.0051
697.4,0.0050
697.3,0.0046
697.2,0.0043
697.1,0.0049
697.0,0.0051
696.9,0.0049
696.8,0.0053
696.7,0.0051
696.6,0.0049
696.5,0.0049
696.4,0.0049
696.3,0.0049
696.2,0.0045
696.1,0.0046
696.0,0.0049
695.9,0.0046
695.8,0.0045
695.7,0.0045
695.6,0.0046
695.5,0.0049
695.4,0.0048
695.3,0.0044
695.2,0.0045
695.1,0.0048
695.0,0.0047
694.9,0.0048
694.8,0.0048
694.7,0.0050
694.6,0.0051
694.5,0.0046
694.4,0.0044
694.3,0.0046
694.2,0.0042
694.1,0.0041
694.0,0.0047
693.9,0.0049
693.8,0.0045
693.7,0.0044
693.6,0.0047
693.5,0.0051
693.4,0.0050
693.3,0.0053
693.2,0.0052
693.1,0.0049
693.0,0.0053
692.9,0.0052
692.8,0.0049
692.7,0.0051
692.6,0.0049
692.5,0.0051
692.4,0.0054
692.3,0.0050
692.2,0.0052
692.1,0.0053
692.0,0.0053
691.9,0.0055
691.8,0.0054
691.7,0.0053
691.6,0.0055
691.5,0.0056
691.4,0.0053
691.3,0.0052
691.2,0.0051
691.1,0.0048
691.0,0.0047
690.9,0.0050
690.8,0.0056
690.7,0.0056
690.6,0.0056
690.5,0.0057
690.4,0.0056
690.3,0.0056
690.2,0.0057
690.1,0.0053
690.0,0.0051
689.9,0.0054
689.8,0.0058
689.7,0.0054
689.6,0.0050
689.5,0.0048
689.4,0.0060
689.3,0.0062
689.2,0.0058
689.1,0.0052
689.0,0.0052
688.9,0.0054
688.8,0.0056
688.7,0.0056
688.6,0.0057
688.5,0.0056
688.4,0.0056
688.3,0.0053
688.2,0.0059
688.1,0.0057
688.0,0.0047
687.9,0.0050
687.8,0.0049
687.7,0.0056
687.6,0.0055
687.5,0.0056
687.4,0.0054
687.3,0.0054
687.2,0.0055
687.1,0.0053
687.0,0.0054
686.9,0.0056
686.8,0.0057
686.7,0.0059
686.6,0.0053
686.5,0.0057
686.4,0.0062
686.3,0.0061
686.2,0.0064
686.1,0.0055
686.0,0.0060
685.9,0.0059
685.8,0.0054
685.7,0.0057
685.6,0.0057
685.5,0.0064
685.4,0.0056
685.3,0.0059
685.2,0.0053
685.1,0.0060
685.0,0.0056
684.9,0.0059
684.8,0.0061
684.7,0.0064
684.6,0.0058
684.5,0.0059
684.4,0.0062
684.3,0.0064
684.2,0.0069
684.1,0.0059
684.0,0.0058
683.9,0.0061
683.8,0.0066
683.7,0.0062
683.6,0.0063
683.5,0.0062
683.4,0.0058
683.3,0.0055
683.2,0.0061
683.1,0.0063
683.0,0.0069
682.9,0.0062
682.8,0.0060
682.7,0.0059
682.6,0.0062
682.5,0.0057
682.4,0.0061
682.3,0.0063
682.2,0.0055
682.1,0.0065
682.0,0.0061
681.9,0.0065
681.8,0.0064
681.7,0.0061
681.6,0.0061
681.5,0.0062
681.4,0.0053
681.3,0.0059
681.2,0.0060
681.1,0.0061
681.0,0.0063
680.9,0.0066
680.8,0.0062
680.7,0.0067
680.6,0.0055
680.5,0.0063
680.4,0.0062
680.3,0.0061
680.2,0.0066
680.1,0.0065
680.0,0.0062
679.9,0.0064
679.8,0.0060
679.7,0.0066
679.6,0.0061
679.5,0.0064
679.4,0.0064
679.3,0.0063
679.2,0.0062
679.1,0.0064
679.0,0.0065
678.9,0.0065
678.8,0.0067
678.7,0.0070
678.6,0.0062
678.5,0.0065
678.4,0.0067
678.3,0.0066
678.2,0.0064
678.1,0.0067
678.0,0.0070
677.9,0.0073
677.8,0.0068
677.7,0.0063
677.6,0.0065
677.5,0.0067
677.4,0.0069
677.3,0.0064
677.2,0.0067
677.1,0.0070
677.0,0.0067
676.9,0.0067
676.8,0.0065
676.7,0.0065
676.6,0.0068
676.5,0.0072
676.4,0.0070
676.3,0.0068
676.2,0.0069
676.1,0.0069
676.0,0.0072
675.9,0.0070
675.8,0.0071
675.7,0.0068
675.6,0.0071
675.5,0.0069
675.4,0.0071
675.3,0.0072
675.2,0.0069
675.1,0.0064
675.0,0.0067
674.9,0.0070
674.8,0.0072
674.7,0.0072
674.6,0.0072
674.5,0.0073
674.4,0.0074
674.3,0.0075
674.2,0.0072
674.1,0.0072
674.0,0.0075
673.9,0.0074
673.8,0.0070
673.7,0.0069
673.6,0.0070
673.5,0.0071
673.4,0.0072
673.3,0.0072
673.2,0.0072
673.1,0.0074
673.0,0.0075
672.9,0.0075
672.8,0.0076
672.7,0.0074
672.6,0.0073
672.5,0.0075
672.4,0.0078
672.3,0.0074
672.2,0.0074
672.1,0.0071
672.0,0.0072
671.9,0.0078
671.8,0.0077
671.7,0.0073
671.6,0.0072
671.5,0.0074
671.4,0.0075
671.3,0.0077
671.2,0.0079
671.1,0.0081
671.0,0.0079
670.9,0.0080
670.8,0.0084
670.7,0.0081
670.6,0.0078
670.5,0.0079
670.4,0.0079
670.3,0.0077
670.2,0.0082
670.1,0.0081
670.0,0.0076
669.9,0.0077
669.8,0.0080
669.7,0.0079
669.6,0.0077
669.5,0.0078
669.4,0.0078
669.3,0.0077
669.2,0.0076
669.1,0.0079
669.0,0.0080
668.9,0.0083
668.8,0.0085
668.7,0.0083
668.6,0.0085
668.5,0.0084
668.4,0.0080
668.3,0.0084
668.2,0.0080
668.1,0.0082
668.0,0.0081
667.9,0.0084
667.8,0.0081
667.7,0.0079
667.6,0.0080
667.5,0.0078
667.4,0.0081
667.3,0.0082
667.2,0.0087
667.1,0.0084
667.0,0.0085
666.9,0.0084
666.8,0.0084
666.7,0.0083
666.6,0.0085
666.5,0.0080
666.4,0.0078
666.3,0.0085
666.2,0.0083
666.1,0.0082
666.0,0.0086
665.9,0.0088
665.8,0.0086
665.7,0.0090
665.6,0.0088
665.5,0.0084
665.4,0.0084
665.3,0.0085
665.2,0.0082
665.1,0.0080
665.0,0.0083
664.9,0.0079
664.8,0.0080
664.7,0.0090
664.6,0.0087
664.5,0.0082
664.4,0.0088
664.3,0.0088
664.2,0.0090
664.1,0.0089
664.0,0.0089
663.9,0.0091
663.8,0.0084
663.7,0.0086
663.6,0.0082
663.5,0.0087
663.4,0.0087
663.3,0.0084
663.2,0.0087
663.1,0.0086
663.0,0.0086
662.9,0.0086
662.8,0.0084
662.7,0.0082
662.6,0.0081
662.5,0.0083
662.4,0.0078
662.3,0.0090
662.2,0.0083
662.1,0.0080
662.0,0.0085
661.9,0.0085
661.8,0.0085
661.7,0.0083
661.6,0.0082
661.5,0.0085
661.4,0.0084
661.3,0.0081
661.2,0.0088
661.1,0.0088
661.0,0.0081
660.9,0.0080
660.8,0.0076
660.7,0.0084
660.6,0.0089
660.5,0.0087
660.4,0.0086
660.3,0.0082
660.2,0.0080
660.1,0.0081
660.0,0.0083
659.9,0.0080
659.8,0.0086
659.7,0.0085
659.6,0.0078
659.5,0.0080
659.4,0.0080
659.3,0.0081
659.2,0.0085
659.1,0.0087
659.0,0.0082
658.9,0.0082
658.8,0.0083
658.7,0.0081
658.6,0.0081
658.5,0.0084
658.4,0.0081
658.3,0.0090
658.2,0.0080
658.1,0.0082
658.0,0.0079
657.9,0.0084
657.8,0.0082
657.7,0.0081
657.6,0.0081
657.5,0.0077
657.4,0.0076
657.3,0.0080
657.2,0.0080
657.1,0.0077
657.0,0.0077
656.9,0.0079
656.8,0.0080
656.7,0.0076
656.6,0.0081
656.5,0.0077
656.4,0.0078
656.3,0.0082
656.2,0.0080
656.1,0.0077
656.0,0.0073
655.9,0.0074
655.8,0.0077
655.7,0.0076
655.6,0.0080
655.5,0.0081
655.4,0.0078
655.3,0.0075
655.2,0.0073
655.1,0.0071
655.0,0.0075
654.9,0.0075
654.8,0.0079
654.7,0.0072
654.6,0.0076
654.5,0.0078
654.4,0.0076
654.3,0.0078
654.2,0.0079
654.1,0.0072
654.0,0.0075
653.9,0.0075
653.8,0.0076
653.7,0.0076
653.6,0.0075
653.5,0.0076
653.4,0.0073
653.3,0.0071
653.2,0.0075
653.1,0.0073
653.0,0.0075
652.9,0.0075
652.8,0.0070
652.7,0.0072
652.6,0.0072
652.5,0.0069
652.4,0.0069
652.3,0.0076
652.2,0.0074
652.1,0.0072
652.0,0.0070
651.9,0.0069
651.8,0.0070
651.7,0.0071
651.6,0.0069
651.5,0.0072
651.4,0.0073
651.3,0.0076
651.2,0.0075
651.1,0.0073
651.0,0.0075
650.9,0.0074
650.8,0.0072
650.7,0.0070
650.6,0.0072
650.5,0.0080
650.4,0.0078
650.3,0.0074
650.2,0.0076
650.1,0.0076
650.0,0.0073
649.9,0.0070
649.8,0.0071
649.7,0.0069
649.6,0.0066
649.5,0.0067
649.4,0.0067
649.3,0.0068
649.2,0.0070
649.1,0.0069
649.0,0.0066
648.9,0.0065
648.8,0.0067
648.7,0.0068
648.6,0.0069
648.5,0.0067
648.4,0.0062
648.3,0.0064
648.2,0.0068
648.1,0.0070
648.0,0.0072
647.9,0.0073
647.8,0.0069
647.7,0.0064
647.6,0.0065
647.5,0.0067
647.4,0.0067
647.3,0.0066
647.2,0.0068
647.1,0.0067
647.0,0.0066
646.9,0.0065
646.8,0.0066
646.7,0.0066
646.6,0.0065
646.5,0.0064
646.4,0.0067
646.3,0.0068
646.2,0.0066
646.1,0.0064
646.0,0.0065
645.9,0.0064
645.8,0.0064
645.7,0.0066
645.6,0.0065
645.5,0.0067
645.4,0.0067
645.3,0.0066
645.2,0.0067
645.1,0.0068
645.0,0.0068
644.9,0.0066
644.8,0.0068
644.7,0.0066
644.6,0.0066
644.5,0.0065
644.4,0.0065
644.3,0.0065
644.2,0.0066
644.1,0.0066
644.0,0.0063
643.9,0.0061
643.8,0.0066
643.7,0.0061
643.6,0.0060
643.5,0.0061
643.4,0.0063
643.3,0.0063
643.2,0.0064
643.1,0.0067
643.0,0.0061
642.9,0.0059
642.8,0.0062
642.7,0.0064
642.6,0.0060
642.5,0.0063
642.4,0.0067
642.3,0.0063
642.2,0.0062
642.1,0.0062
642.0,0.0060
641.9,0.0066
641.8,0.0064
641.7,0.0068
641.6,0.0065
641.5,0.0060
641.4,0.0058
641.3,0.0066
641.2,0.0062
641.1,0.0060
641.0,0.0060
640.9,0.0064
640.8,0.0066
640.7,0.0061
640.6,0.0066
640.5,0.0066
640.4,0.0062
640.3,0.0061
640.2,0.0063
640.1,0.0059
640.0,0.0060
639.9,0.0056
639.8,0.0058
639.7,0.0057
639.6,0.0061
639.5,0.0060
639.4,0.0062
639.3,0.0060
639.2,0.0061
639.1,0.0059
639.0,0.0058
638.9,0.0061
638.8,0.0063
638.7,0.0059
638.6,0.0058
638.5,0.0050
638.4,0.0062
638.3,0.0062
638.2,0.0055
638.1,0.0061
638.0,0.0059
637.9,0.0062
637.8,0.0059
637.7,0.0064
637.6,0.0058
637.5,0.0062
637.4,0.0058
637.3,0.0061
637.2,0.0062
637.1,0.0064
637.0,0.0060
636.9,0.0060
636.8,0.0063
636.7,0.0058
636.6,0.0059
636.5,0.0063
636.4,0.0056
636.3,0.0062
636.2,0.0060
636.1,0.0061
636.0,0.0056
635.9,0.0060
635.8,0.0062
635.7,0.0059
635.6,0.0057
635.5,0.0057
635.4,0.0061
635.3,0.0055
635.2,0.0063
635.1,0.0054
635.0,0.0063
634.9,0.0058
634.8,0.0056
634.7,0.0057
634.6,0.0064
634.5,0.0061
634.4,0.0059
634.3,0.0064
634.2,0.0058
634.1,0.0059
634.0,0.0056
633.9,0.0057
633.8,0.0059
633.7,0.0062
633.6,0.0061
633.5,0.0067
633.4,0.0059
633.3,0.0059
633.2,0.0057
633.1,0.0054
633.0,0.0061
632.9,0.0058
632.8,0.0063
632.7,0.0056
632.6,0.0059
632.5,0.0054
632.4,0.0062
632.3,0.0064
632.2,0.0056
632.1,0.0057
632.0,0.0060
631.9,0.0064
631.8,0.0060
631.7,0.0056
631.6,0.0062
631.5,0.0060
631.4,0.0060
631.3,0.0059
631.2,0.0059
631.1,0.0060
631.0,0.0062
630.9,0.0054
630.8,0.0057
630.7,0.0057
630.6,0.0059
630.5,0.0055
630.4,0.0057
630.3,0.0056
630.2,0.0055
630.1,0.0055
630.0,0.0055
629.9,0.0056
629.8,0.0055
629.7,0.0061
629.6,0.0060
629.5,0.0063
629.4,0.0061
629.3,0.0056
629.2,0.0060
629.1,0.0061
629.0,0.0061
628.9,0.0060
628.8,0.0060
628.7,0.0063
628.6,0.0059
628.5,0.0055
628.4,0.0058
628.3,0.0057
628.2,0.0058
628.1,0.0059
628.0,0.0059
627.9,0.0060
627.8,0.0059
627.7,0.0058
627.6,0.0058
627.5,0.0060
627.4,0.0058
627.3,0.0061
627.2,0.0060
627.1,0.0059
627.0,0.0058
626.9,0.0058
626.8,0.0058
626.7,0.0059
626.6,0.0057
626.5,0.0057
626.4,0.0060
626.3,0.0061
626.2,0.0057
626.1,0.0055
626.0,0.0056
625.9,0.0056
625.8,0.0057
625.7,0.0057
625.6,0.0054
625.5,0.0055
625.4,0.0056
625.3,0.0054
625.2,0.0057
625.1,0.0058
625.0,0.0053
624.9,0.0055
624.8,0.0060
624.7,0.0060
624.6,0.0059
624.5,0.0057
624.4,0.0055
624.3,0.0056
624.2,0.0057
624.1,0.0057
624.0,0.0058
623.9,0.0058
623.8,0.0059
623.7,0.0057
623.6,0.0054
623.5,0.0054
623.4,0.0056
623.3,0.0056
623.2,0.0056
623.1,0.0063
623.0,0.0060
622.9,0.0056
622.8,0.0061
622.7,0.0053
622.6,0.0049
622.5,0.0056
622.4,0.0057
622.3,0.0057
622.2,0.0056
622.1,0.0055
622.0,0.0056
621.9,0.0057
621.8,0.0059
621.7,0.0060
621.6,0.0059
621.5,0.0057
621.4,0.0054
621.3,0.0057
621.2,0.0058
621.1,0.0057
621.0,0.0058
620.9,0.0061
620.8,0.0059
620.7,0.0056
620.6,0.0056
620.5,0.0058
620.4,0.0056
620.3,0.0058
620.2,0.0055
620.1,0.0057
620.0,0.0059
619.9,0.0055
619.8,0.0056
619.7,0.0055
619.6,0.0054
619.5,0.0053
619.4,0.0056
619.3,0.0056
619.2,0.0056
619.1,0.0053
619.0,0.0054
618.9,0.0056
618.8,0.0052
618.7,0.0056
618.6,0.0052
618.5,0.0051
618.4,0.0050
618.3,0.0053
618.2,0.0051
618.1,0.0054
618.0,0.0056
617.9,0.0056
617.8,0.0055
617.7,0.0054
617.6,0.0055
617.5,0.0057
617.4,0.0054
617.3,0.0054
617.2,0.0054
617.1,0.0052
617.0,0.0053
616.9,0.0049
616.8,0.0051
616.7,0.0055
616.6,0.0052
616.5,0.0053
616.4,0.0053
616.3,0.0053
616.2,0.0055
616.1,0.0054
616.0,0.0052
615.9,0.0049
615.8,0.0049
615.7,0.0050
615.6,0.0052
615.5,0.0051
615.4,0.0054
615.3,0.0052
615.2,0.0051
615.1,0.0053
615.0,0.0053
614.9,0.0054
614.8,0.0057
614.7,0.0053
614.6,0.0051
614.5,0.0047
614.4,0.0051
614.3,0.0055
614.2,0.0052
614.1,0.0047
614.0,0.0052
613.9,0.0049
613.8,0.0048
613.7,0.0052
613.6,0.0046
613.5,0.0049
613.4,0.0052
613.3,0.0052
613.2,0.0051
613.1,0.0045
613.0,0.0041
612.9,0.0049
612.8,0.0045
612.7,0.0049
612.6,0.0045
612.5,0.0052
612.4,0.0046
612.3,0.0046
612.2,0.0051
612.1,0.0048
612.0,0.0051
611.9,0.0048
611.8,0.0046
611.7,0.0049
611.6,0.0044
611.5,0.0044
611.4,0.0047
611.3,0.0051
611.2,0.0042
611.1,0.0048
611.0,0.0047
610.9,0.0051
610.8,0.0048
610.7,0.0050
610.6,0.0044
610.5,0.0042
610.4,0.0042
610.3,0.0041
610.2,0.0045
610.1,0.0044
610.0,0.0045
609.9,0.0041
609.8,0.0043
609.7,0.0043
609.6,0.0041
609.5,0.0044
609.4,0.0043
609.3,0.0045
609.2,0.0047
609.1,0.0042
609.0,0.0046
608.9,0.0044
608.8,0.0043
608.7,0.0040
608.6,0.0042
608.5,0.0042
608.4,0.0041
608.3,0.0042
608.2,0.0044
608.1,0.0037
608.0,0.0041
607.9,0.0038
607.8,0.0037
607.7,0.0034
607.6,0.0040
607.5,0.0038
607.4,0.0040
607.3,0.0038
607.2,0.0037
607.1,0.0038
607.0,0.0037
606.9,0.0038
606.8,0.0038
606.7,0.0039
606.6,0.0037
606.5,0.0037
606.4,0.0037
606.3,0.0040
606.2,0.0035
606.1,0.0039
606.0,0.0042
605.9,0.0036
605.8,0.0034
605.7,0.0036
605.6,0.0035
605.5,0.0036
605.4,0.0037
605.3,0.0037
605.2,0.0036
605.1,0.0034
605.0,0.0038
604.9,0.0037
604.8,0.0033
604.7,0.0033
604.6,0.0034
604.5,0.0033
604.4,0.0031
604.3,0.0033
604.2,0.0034
604.1,0.0031
604.0,0.0032
603.9,0.0032
603.8,0.0031
603.7,0.0032
603.6,0.0031
603.5,0.0032
603.4,0.0033
603.3,0.0030
603.2,0.0029
603.1,0.0032
603.0,0.0033
602.9,0.0030
602.8,0.0026
602.7,0.0030
602.6,0.0030
602.5,0.0029
602.4,0.0030
602.3,0.0028
602.2,0.0029
602.1,0.0028
602.0,0.0029
601.9,0.0029
601.8,0.0030
601.7,0.0030
601.6,0.0029
601.5,0.0029
601.4,0.0029
601.3,0.0029
601.2,0.0029
601.1,0.0029
601.0,0.0029
600.9,0.0027
600.8,0.0027
600.7,0.0028
600.6,0.0027
600.5,0.0027
600.4,0.0023
600.3,0.0022
600.2,0.0024
600.1,0.0022
600.0,0.0023
599.9,0.0026
599.8,0.0024
599.7,0.0023
599.6,0.0023
599.5,0.0023
599.4,0.0021
599.3,0.0022
599.2,0.0023
599.1,0.0021
599.0,0.0020
598.9,0.0021
598.8,0.0021
598.7,0.0018
598.6,0.0021
598.5,0.0021
598.4,0.0020
598.3,0.0020
598.2,0.0022
598.1,0.0021
598.0,0.0019
597.9,0.0020
597.8,0.0017
597.7,0.0018
597.6,0.0018
597.5,0.0020
597.4,0.0016
597.3,0.0014
597.2,0.0014
597.1,0.0016
597.0,0.0017
596.9,0.0017
596.8,0.0015
596.7,0.0016
596.6,0.0017
596.5,0.0014
596.4,0.0014
596.3,0.0013
596.2,0.0012
596.1,0.0013
596.0,0.0012
595.9,0.0012
595.8,0.0014
595.7,0.0015
595.6,0.0013
595.5,0.0012
595.4,0.0015
595.3,0.0014
595.2,0.0013
595.1,0.0013
595.0,0.0010
594.9,0.0008
594.8,0.0010
594.7,0.0013
594.6,0.0009
594.5,0.0006
594.4,0.0008
594.3,0.0012
594.2,0.0012
594.1,0.0012
594.0,0.0010
593.9,0.0009
593.8,0.0012
593.7,0.0011
593.6,0.0005
593.5,0.0006
593.4,0.0007
593.3,0.0007
593.2,0.0004
593.1,0.0005
593.0,0.0003
592.9,0.0007
592.8,0.0004
592.7,0.0010
592.6,0.0008
592.5,0.0003
592.4,0.0005
592.3,0.0008
592.2,0.0006
592.1,0.0011
592.0,0.0010
591.9,0.0007
591.8,0.0004
591.7,0.0006
591.6,0.0006
591.5,0.0007
591.4,0.0002
591.3,0.0003
591.2,0.0002
591.1,0.0003
591.0,0.0001
590.9,0.0003
590.8,0.0000
590.7,0.0001
590.6,0.0001
590.5,0.0001
590.4,0.0002
590.3,-0.0001
590.2,-0.0003
590.1,0.0001
590.0,0.0002
589.9,-0.0004
589.8,0.0002
589.7,0.0003
589.6,0.0000
589.5,0.0001
589.4,-0.0000
589.3,-0.0002
589.2,-0.0005
589.1,-0.0002
589.0,-0.0004
588.9,-0.0005
588.8,-0.0001
588.7,-0.0005
588.6,-0.0004
588.5,-0.0004
588.4,-0.0002
588.3,-0.0001
588.2,-0.0003
588.1,-0.0007
588.0,-0.0002
587.9,-0.0006
587.8,-0.0004
587.7,-0.0004
587.6,-0.0004
587.5,-0.0002
587.4,-0.0008
587.3,-0.0008
587.2,-0.0008
587.1,-0.0005
587.0,-0.0008
586.9,-0.0007
586.8,-0.0009
586.7,-0.0011
586.6,-0.0010
586.5,-0.0011
586.4,-0.0011
586.3,-0.0011
586.2,-0.0010
586.1,-0.0009
586.0,-0.0010
585.9,-0.0010
585.8,-0.0014
585.7,-0.0014
585.6,-0.0012
585.5,-0.0012
585.4,-0.0013
585.3,-0.0013
585.2,-0.0012
585.1,-0.0012
585.0,-0.0011
584.9,-0.0013
584.8,-0.0009
584.7,-0.0013
584.6,-0.0012
584.5,-0.0010
584.4,-0.0009
584.3,-0.0014
584.2,-0.0016
584.1,-0.0015
584.0,-0.0014
583.9,-0.0016
583.8,-0.0015
583.7,-0.0014
583.6,-0.0015
583.5,-0.0014
583.4,-0.0014
583.3,-0.0017
583.2,-0.0019
583.1,-0.0017
583.0,-0.0015
582.9,-0.0018
582.8,-0.0019
582.7,-0.0019
582.6,-0.0016
582.5,-0.0017
582.4,-0.0021
582.3,-0.0021
582.2,-0.0022
582.1,-0.0020
582.0,-0.0017
581.9,-0.0019
581.8,-0.0019
581.7,-0.0020
581.6,-0.0021
581.5,-0.0018
581.4,-0.0021
581.3,-0.0019
581.2,-0.0021
581.1,-0.0023
581.0,-0.0020
580.9,-0.0018
580.8,-0.0019
580.7,-0.0022
580.6,-0.0021
580.5,-0.0022
580.4,-0.0025
580.3,-0.0026
580.2,-0.0024
580.1,-0.0025
580.0,-0.0026
