Created as New Dataset,
nm,A
800.0,0.0070
799.9,0.0071
799.8,0.0066
799.7,0.0070
799.6,0.0079
799.5,0.0062
799.4,0.0070
799.3,0.0071
799.2,0.0073
799.1,0.0061
799.0,0.0082
798.9,0.0056
798.8,0.0070
798.7,0.0073
798.6,0.0071
798.5,0.0054
798.4,0.0075
798.3,0.0070
798.2,0.0074
798.1,0.0075
798.0,0.0070
797.9,0.0063
797.8,0.0073
797.7,0.0067
797.6,0.0065
797.5,0.0073
797.4,0.0070
797.3,0.0062
797.2,0.0077
797.1,0.0067
797.0,0.0069
796.9,0.0065
796.8,0.0070
796.7,0.0075
796.6,0.0070
796.5,0.0069
796.4,0.0075
796.3,0.0065
796.2,0.0055
796.1,0.0065
796.0,0.0072
795.9,0.0070
795.8,0.0070
795.7,0.0068
795.6,0.0077
795.5,0.0068
795.4,0.0061
795.3,0.0068
795.2,0.0072
795.1,0.0081
795.0,0.0077
794.9,0.0073
794.8,0.0074
794.7,0.0075
794.6,0.0073
794.5,0.0075
794.4,0.0069
794.3,0.0079
794.2,0.0066
794.1,0.0064
794.0,0.0072
793.9,0.0080
793.8,0.0076
793.7,0.0070
793.6,0.0065
793.5,0.0056
793.4,0.0057
793.3,0.0063
793.2,0.0076
793.1,0.0073
793.0,0.0066
792.9,0.0066
792.8,0.0076
792.7,0.0072
792.6,0.0075
792.5,0.0070
792.4,0.0065
792.3,0.0063
792.2,0.0074
792.1,0.0073
792.0,0.0072
791.9,0.0074
791.8,0.0065
791.7,0.0064
791.6,0.0063
791.5,0.0061
791.4,0.0063
791.3,0.0066
791.2,0.0069
791.1,0.0073
791.0,0.0070
790.9,0.0065
790.8,0.0068
790.7,0.0071
790.6,0.0074
790.5,0.0073
790.4,0.0073
790.3,0.0083
790.2,0.0081
790.1,0.0072
790.0,0.0075
789.9,0.0068
789.8,0.0062
789.7,0.0068
789.6,0.0072
789.5,0.0078
789.4,0.0071
789.3,0.0062
789.2,0.0066
789.1,0.0077
789.0,0.0080
788.9,0.0068
788.8,0.0066
788.7,0.0074
788.6,0.0074
788.5,0.0068
788.4,0.0063
788.3,0.0067
788.2,0.0064
788.1,0.0062
788.0,0.0065
787.9,0.0068
787.8,0.0073
787.7,0.0079
787.6,0.0072
787.5,0.0072
787.4,0.0074
787.3,0.0071
787.2,0.0068
787.1,0.0067
787.0,0.0075
786.9,0.0074
786.8,0.0073
786.7,0.0067
786.6,0.0068
786.5,0.0070
786.4,0.0073
786.3,0.0072
786.2,0.0066
786.1,0.0069
786.0,0.0064
785.9,0.0070
785.8,0.0073
785.7,0.0062
785.6,0.0067
785.5,0.0073
785.4,0.0064
785.3,0.0068
785.2,0.0070
785.1,0.0067
785.0,0.0064
784.9,0.0070
784.8,0.0077
784.7,0.0057
784.6,0.0066
784.5,0.0073
784.4,0.0076
784.3,0.0076
784.2,0.0071
784.1,0.0075
784.0,0.0077
783.9,0.0076
783.8,0.0072
783.7,0.0077
783.6,0.0071
783.5,0.0069
783.4,0.0073
783.3,0.0074
783.2,0.0067
783.1,0.0072
783.0,0.0077
782.9,0.0070
782.8,0.0069
782.7,0.0072
782.6,0.0070
782.5,0.0076
782.4,0.0079
782.3,0.0079
782.2,0.0074
782.1,0.0068
782.0,0.0077
781.9,0.0072
781.8,0.0078
781.7,0.0072
781.6,0.0070
781.5,0.0062
781.4,0.0071
781.3,0.0073
781.2,0.0065
781.1,0.0068
781.0,0.0067
780.9,0.0067
780.8,0.0063
780.7,0.0066
780.6,0.0074
780.5,0.0074
780.4,0.0067
780.3,0.0066
780.2,0.0067
780.1,0.0076
780.0,0.0073
779.9,0.0081
779.8,0.0075
779.7,0.0071
779.6,0.0065
779.5,0.0065
779.4,0.0072
779.3,0.0076
779.2,0.0077
779.1,0.0068
779.0,0.0078
778.9,0.0078
778.8,0.0069
778.7,0.0073
778.6,0.0068
778.5,0.0069
778.4,0.0070
778.3,0.0082
778.2,0.0078
778.1,0.0077
778.0,0.0074
777.9,0.0077
777.8,0.0070
777.7,0.0070
777.6,0.0075
777.5,0.0065
777.4,0.0077
777.3,0.0083
777.2,0.0076
777.1,0.0078
777.0,0.0066
776.9,0.0075
776.8,0.0075
776.7,0.0076
776.6,0.0077
776.5,0.0069
776.4,0.0074
776.3,0.0064
776.2,0.0068
776.1,0.0060
776.0,0.0075
775.9,0.0075
775.8,0.0092
775.7,0.0076
775.6,0.0059
775.5,0.0070
775.4,0.0072
775.3,0.0080
775.2,0.0072
775.1,0.0071
775.0,0.0069
774.9,0.0080
774.8,0.0069
774.7,0.0076
774.6,0.0080
774.5,0.0082
774.4,0.0074
774.3,0.0072
774.2,0.0070
774.1,0.0077
774.0,0.0075
773.9,0.0069
773.8,0.0068
773.7,0.0071
773.6,0.0072
773.5,0.0071
773.4,0.0064
773.3,0.0079
773.2,0.0084
773.1,0.0079
773.0,0.0079
772.9,0.0076
772.8,0.0074
772.7,0.0069
772.6,0.0076
772.5,0.0076
772.4,0.0075
772.3,0.0074
772.2,0.0078
772.1,0.0080
772.0,0.0078
771.9,0.0070
771.8,0.0078
771.7,0.0075
771.6,0.0072
771.5,0.0076
771.4,0.0068
771.3,0.0071
771.2,0.0071
771.1,0.0082
771.0,0.0083
770.9,0.0071
770.8,0.0072
770.7,0.0080
770.6,0.0079
770.5,0.0068
770.4,0.0064
770.3,0.0067
770.2,0.0075
770.1,0.0077
770.0,0.0080
769.9,0.0079
769.8,0.0082
769.7,0.0076
769.6,0.0067
769.5,0.0075
769.4,0.0079
769.3,0.0080
769.2,0.0079
769.1,0.0077
769.0,0.0079
768.9,0.0077
768.8,0.0077
768.7,0.0077
768.6,0.0070
768.5,0.0070
768.4,0.0069
768.3,0.0071
768.2,0.0077
768.1,0.0081
768.0,0.0076
767.9,0.0075
767.8,0.0077
767.7,0.0080
767.6,0.0082
767.5,0.0080
767.4,0.0088
767.3,0.0087
767.2,0.0077
767.1,0.0073
767.0,0.0077
766.9,0.0078
766.8,0.0077
766.7,0.0070
766.6,0.0076
766.5,0.0081
766.4,0.0078
766.3,0.0085
766.2,0.0079
766.1,0.0069
766.0,0.0067
765.9,0.0069
765.8,0.0079
765.7,0.0077
765.6,0.0077
765.5,0.0081
765.4,0.0083
765.3,0.0077
765.2,0.0076
765.1,0.0077
765.0,0.0074
764.9,0.0079
764.8,0.0079
764.7,0.0081
764.6,0.0078
764.5,0.0074
764.4,0.0077
764.3,0.0068
764.2,0.0061
764.1,0.0066
764.0,0.0072
763.9,0.0071
763.8,0.0075
763.7,0.0073
763.6,0.0068
763.5,0.0077
763.4,0.0080
763.3,0.0080
763.2,0.0077
763.1,0.0080
763.0,0.0081
762.9,0.0076
762.8,0.0074
762.7,0.0078
762.6,0.0078
762.5,0.0075
762.4,0.0076
762.3,0.0080
762.2,0.0079
762.1,0.0077
762.0,0.0086
761.9,0.0086
761.8,0.0083
761.7,0.0078
761.6,0.0077
761.5,0.0081
761.4,0.0080
761.3,0.0079
761.2,0.0071
761.1,0.0075
761.0,0.0082
760.9,0.0072
760.8,0.0072
760.7,0.0072
760.6,0.0072
760.5,0.0074
760.4,0.0075
760.3,0.0079
760.2,0.0074
760.1,0.0069
760.0,0.0080
759.9,0.0073
759.8,0.0076
759.7,0.0079
759.6,0.0082
759.5,0.0075
759.4,0.0073
759.3,0.0084
759.2,0.0080
759.1,0.0076
759.0,0.0069
758.9,0.0075
758.8,0.0074
758.7,0.0077
758.6,0.0080
758.5,0.0077
758.4,0.0078
758.3,0.0076
758.2,0.0082
758.1,0.0082
758.0,0.0082
757.9,0.0077
757.8,0.0087
757.7,0.0076
757.6,0.0079
757.5,0.0080
757.4,0.0082
757.3,0.0076
757.2,0.0090
757.1,0.0073
757.0,0.0090
756.9,0.0084
756.8,0.0076
756.7,0.0071
756.6,0.0079
756.5,0.0084
756.4,0.0074
756.3,0.0077
756.2,0.0079
756.1,0.0076
756.0,0.0074
755.9,0.0069
755.8,0.0080
755.7,0.0087
755.6,0.0085
755.5,0.0088
755.4,0.0073
755.3,0.0083
755.2,0.0083
755.1,0.0073
755.0,0.0078
754.9,0.0072
754.8,0.0080
754.7,0.0077
754.6,0.0087
754.5,0.0082
754.4,0.0079
754.3,0.0086
754.2,0.0082
754.1,0.0083
754.0,0.0081
753.9,0.0077
753.8,0.0075
753.7,0.0085
753.6,0.0081
753.5,0.0082
753.4,0.0085
753.3,0.0068
753.2,0.0085
753.1,0.0084
753.0,0.0083
752.9,0.0080
752.8,0.0089
752.7,0.0077
752.6,0.0079
752.5,0.0077
752.4,0.0088
752.3,0.0096
752.2,0.0080
752.1,0.0077
752.0,0.0074
751.9,0.0078
751.8,0.0074
751.7,0.0081
751.6,0.0081
751.5,0.0080
751.4,0.0080
751.3,0.0079
751.2,0.0078
751.1,0.0075
751.0,0.0083
750.9,0.0082
750.8,0.0077
750.7,0.0081
750.6,0.0081
750.5,0.0083
750.4,0.0088
750.3,0.0076
750.2,0.0075
750.1,0.0076
750.0,0.0083
749.9,0.0077
749.8,0.0086
749.7,0.0080
749.6,0.0086
749.5,0.0087
749.4,0.0079
749.3,0.0090
749.2,0.0087
749.1,0.0082
749.0,0.0086
748.9,0.0077
748.8,0.0077
748.7,0.0081
748.6,0.0079
748.5,0.0078
748.4,0.0082
748.3,0.0078
748.2,0.0074
748.1,0.0078
748.0,0.0074
747.9,0.0079
747.8,0.0090
747.7,0.0082
747.6,0.0091
747.5,0.0086
747.4,0.0084
747.3,0.0081
747.2,0.0079
747.1,0.0081
747.0,0.0079
746.9,0.0082
746.8,0.0079
746.7,0.0070
746.6,0.0077
746.5,0.0081
746.4,0.0079
746.3,0.0074
746.2,0.0075
746.1,0.0074
746.0,0.0077
745.9,0.0082
745.8,0.0078
745.7,0.0076
745.6,0.0084
745.5,0.0080
745.4,0.0082
745.3,0.0084
745.2,0.0085
745.1,0.0085
745.0,0.0088
744.9,0.0082
744.8,0.0078
744.7,0.0082
744.6,0.0083
744.5,0.0083
744.4,0.0083
744.3,0.0078
744.2,0.0079
744.1,0.0086
744.0,0.0084
743.9,0.0079
743.8,0.0079
743.7,0.0084
743.6,0.0085
743.5,0.0078
743.4,0.0077
743.3,0.0085
743.2,0.0085
743.1,0.0080
743.0,0.0081
742.9,0.0079
742.8,0.0080
742.7,0.0079
742.6,0.0079
742.5,0.0084
742.4,0.0084
742.3,0.0083
742.2,0.0085
742.1,0.0081
742.0,0.0080
741.9,0.0083
741.8,0.0083
741.7,0.0086
741.6,0.0086
741.5,0.0086
741.4,0.0085
741.3,0.0084
741.2,0.0083
741.1,0.0081
741.0,0.0080
740.9,0.0084
740.8,0.0085
740.7,0.0081
740.6,0.0082
740.5,0.0088
740.4,0.0086
740.3,0.0084
740.2,0.0088
740.1,0.0088
740.0,0.0078
739.9,0.0079
739.8,0.0083
739.7,0.0086
739.6,0.0088
739.5,0.0084
739.4,0.0083
739.3,0.0084
739.2,0.0087
739.1,0.0084
739.0,0.0080
738.9,0.0084
738.8,0.0087
738.7,0.0087
738.6,0.0085
738.5,0.0083
738.4,0.0086
738.3,0.0084
738.2,0.0085
738.1,0.0091
738.0,0.0091
737.9,0.0084
737.8,0.0081
737.7,0.0082
737.6,0.0087
737.5,0.0086
737.4,0.0083
737.3,0.0089
737.2,0.0085
737.1,0.0079
737.0,0.0085
736.9,0.0093
736.8,0.0092
736.7,0.0089
736.6,0.0080
736.5,0.0087
736.4,0.0091
736.3,0.0083
736.2,0.0085
736.1,0.0083
736.0,0.0085
735.9,0.0085
735.8,0.0084
735.7,0.0084
735.6,0.0089
735.5,0.0081
735.4,0.0082
735.3,0.0085
735.2,0.0089
735.1,0.0092
735.0,0.0086
734.9,0.0088
734.8,0.0088
734.7,0.0086
734.6,0.0086
734.5,0.0092
734.4,0.0087
734.3,0.0086
734.2,0.0093
734.1,0.0086
734.0,0.0084
733.9,0.0085
733.8,0.0088
733.7,0.0085
733.6,0.0083
733.5,0.0088
733.4,0.0095
733.3,0.0081
733.2,0.0080
733.1,0.0085
733.0,0.0082
732.9,0.0084
732.8,0.0083
732.7,0.0086
732.6,0.0089
732.5,0.0092
732.4,0.0083
732.3,0.0091
732.2,0.0091
732.1,0.0080
732.0,0.0085
731.9,0.0090
731.8,0.0090
731.7,0.0090
731.6,0.0091
731.5,0.0089
731.4,0.0085
731.3,0.0083
731.2,0.0094
731.1,0.0093
731.0,0.0076
730.9,0.0078
730.8,0.0092
730.7,0.0083
730.6,0.0079
730.5,0.0085
730.4,0.0095
730.3,0.0089
730.2,0.0093
730.1,0.0095
730.0,0.0087
729.9,0.0085
729.8,0.0085
729.7,0.0083
729.6,0.0087
729.5,0.0093
729.4,0.0089
729.3,0.0093
729.2,0.0081
729.1,0.0080
729.0,0.0088
728.9,0.0085
728.8,0.0090
728.7,0.0092
728.6,0.0095
728.5,0.0090
728.4,0.0098
728.3,0.0084
728.2,0.0087
728.1,0.0093
728.0,0.0095
727.9,0.0090
727.8,0.0085
727.7,0.0095
727.6,0.0093
727.5,0.0098
727.4,0.0091
727.3,0.0092
727.2,0.0087
727.1,0.0086
727.0,0.0091
726.9,0.0089
726.8,0.0090
726.7,0.0093
726.6,0.0093
726.5,0.0082
726.4,0.0094
726.3,0.0093
726.2,0.0091
726.1,0.0095
726.0,0.0089
725.9,0.0086
725.8,0.0097
725.7,0.0097
725.6,0.0093
725.5,0.0086
725.4,0.0091
725.3,0.0084
725.2,0.0094
725.1,0.0090
725.0,0.0096
724.9,0.0084
724.8,0.0085
724.7,0.0092
724.6,0.0085
724.5,0.0087
724.4,0.0089
724.3,0.0088
724.2,0.0092
724.1,0.0087
724.0,0.0083
723.9,0.0085
723.8,0.0087
723.7,0.0087
723.6,0.0086
723.5,0.0090
723.4,0.0087
723.3,0.0088
723.2,0.0090
723.1,0.0094
723.0,0.0093
722.9,0.0091
722.8,0.0090
722.7,0.0090
722.6,0.0090
722.5,0.0090
722.4,0.0088
722.3,0.0093
722.2,0.0092
722.1,0.0092
722.0,0.0095
721.9,0.0091
721.8,0.0095
721.7,0.0095
721.6,0.0095
721.5,0.0091
721.4,0.0092
721.3,0.0091
721.2,0.0093
721.1,0.0094
721.0,0.0095
720.9,0.0095
720.8,0.0096
720.7,0.0092
720.6,0.0087
720.5,0.0087
720.4,0.0092
720.3,0.0093
720.2,0.0089
720.1,0.0091
720.0,0.0094
719.9,0.0092
719.8,0.0089
719.7,0.0092
719.6,0.0097
719.5,0.0097
719.4,0.0091
719.3,0.0085
719.2,0.0085
719.1,0.0088
719.0,0.0092
718.9,0.0091
718.8,0.0090
718.7,0.0095
718.6,0.0096
718.5,0.0097
718.4,0.0095
718.3,0.0090
718.2,0.0088
718.1,0.0090
718.0,0.0094
717.9,0.0099
717.8,0.0096
717.7,0.0090
717.6,0.0089
717.5,0.0088
717.4,0.0090
717.3,0.0093
717.2,0.0090
717.1,0.0094
717.0,0.0095
716.9,0.0091
716.8,0.0093
716.7,0.0100
716.6,0.0098
716.5,0.0093
716.4,0.0095
716.3,0.0089
716.2,0.0090
716.1,0.0091
716.0,0.0090
715.9,0.0094
715.8,0.0092
715.7,0.0095
715.6,0.0091
715.5,0.0093
715.4,0.0098
715.3,0.0095
715.2,0.0093
715.1,0.0095
715.0,0.0096
714.9,0.0093
714.8,0.0096
714.7,0.0096
714.6,0.0096
714.5,0.0094
714.4,0.0090
714.3,0.0096
714.2,0.0093
714.1,0.0093
714.0,0.0094
713.9,0.0092
713.8,0.0092
713.7,0.0091
713.6,0.0091
713.5,0.0098
713.4,0.0094
713.3,0.0093
713.2,0.0095
713.1,0.0097
713.0,0.0094
712.9,0.0099
712.8,0.0098
712.7,0.0100
712.6,0.0095
712.5,0.0095
712.4,0.0103
712.3,0.0104
712.2,0.0097
712.1,0.0100
712.0,0.0100
711.9,0.0097
711.8,0.0097
711.7,0.0098
711.6,0.0093
711.5,0.0098
711.4,0.0099
711.3,0.0093
711.2,0.0099
711.1,0.0094
711.0,0.0095
710.9,0.0099
710.8,0.0097
710.7,0.0096
710.6,0.0102
710.5,0.0091
710.4,0.0099
710.3,0.0098
710.2,0.0102
710.1,0.0102
710.0,0.0098
709.9,0.0098
709.8,0.0099
709.7,0.0097
709.6,0.0098
709.5,0.0095
709.4,0.0099
709.3,0.0103
709.2,0.0100
709.1,0.0098
709.0,0.0106
708.9,0.0100
708.8,0.0095
708.7,0.0096
708.6,0.0101
708.5,0.0098
708.4,0.0096
708.3,0.0097
708.2,0.0093
708.1,0.0091
708.0,0.0102
707.9,0.0099
707.8,0.0092
707.7,0.0097
707.6,0.0102
707.5,0.0100
707.4,0.0098
707.3,0.0097
707.2,0.0096
707.1,0.0092
707.0,0.0101
706.9,0.0103
706.8,0.0100
706.7,0.0104
706.6,0.0094
706.5,0.0094
706.4,0.0099
706.3,0.0102
706.2,0.0105
706.1,0.0101
706.0,0.0109
705.9,0.0103
705.8,0.0096
705.7,0.0095
705.6,0.0106
705.5,0.0102
705.4,0.0100
705.3,0.0104
705.2,0.0102
705.1,0.0094
705.0,0.0104
704.9,0.0104
704.8,0.0108
704.7,0.0105
704.6,0.0102
704.5,0.0097
704.4,0.0104
704.3,0.0102
704.2,0.0103
704.1,0.0098
704.0,0.0101
703.9,0.0099
703.8,0.0106
703.7,0.0101
703.6,0.0099
703.5,0.0099
703.4,0.0102
703.3,0.0102
703.2,0.0104
703.1,0.0103
703.0,0.0107
702.9,0.0098
702.8,0.0103
702.7,0.0103
702.6,0.0100
702.5,0.0106
702.4,0.0108
702.3,0.0108
702.2,0.0099
702.1,0.0107
702.0,0.0100
701.9,0.0103
701.8,0.0104
701.7,0.0104
701.6,0.0111
701.5,0.0111
701.4,0.0106
701.3,0.0105
701.2,0.0102
701.1,0.0110
701.0,0.0101
700.9,0.0104
700.8,0.0101
700.7,0.0098
700.6,0.0108
700.5,0.0109
700.4,0.0104
700.3,0.0109
700.2,0.0107
700.1,0.0103
700.0,0.0106
699.9,0.0110
699.8,0.0109
699.7,0.0105
699.6,0.0102
699.5,0.0110
699.4,0.0105
699.3,0.0103
699.2,0.0103
699.1,0.0107
699.0,0.0104
698.9,0.0104
698.8,0.0107
698.7,0.0108
698.6,0.0109
698.5,0.0107
698.4,0.0106
698.3,0.0106
698.2,0.0107
698.1,0.0104
698.0,0.0104
697.9,0.0109
697.8,0.0107
697.7,0.0111
697.6,0.0107
697.5,0.0107
697.4,0.0112
697.3,0.0113
697.2,0.0112
697.1,0.0110
697.0,0.0110
696.9,0.0111
696.8,0.0115
696.7,0.0112
696.6,0.0109
696.5,0.0110
696.4,0.0106
696.3,0.0102
696.2,0.0107
696.1,0.0109
696.0,0.0112
695.9,0.0110
695.8,0.0106
695.7,0.0111
695.6,0.0116
695.5,0.0114
695.4,0.0112
695.3,0.0112
695.2,0.0112
695.1,0.0111
695.0,0.0111
694.9,0.0110
694.8,0.0109
694.7,0.0110
694.6,0.0111
694.5,0.0110
694.4,0.0110
694.3,0.0114
694.2,0.0109
694.1,0.0102
694.0,0.0108
693.9,0.0111
693.8,0.0109
693.7,0.0110
693.6,0.0110
693.5,0.0110
693.4,0.0114
693.3,0.0117
693.2,0.0115
693.1,0.0113
693.0,0.0114
692.9,0.0117
692.8,0.0113
692.7,0.0109
692.6,0.0105
692.5,0.0109
692.4,0.0113
692.3,0.0111
692.2,0.0110
692.1,0.0112
692.0,0.0119
691.9,0.0119
691.8,0.0116
691.7,0.0116
691.6,0.0116
691.5,0.0115
691.4,0.0113
691.3,0.0113
691.2,0.0113
691.1,0.0112
691.0,0.0115
690.9,0.0116
690.8,0.0120
690.7,0.0117
690.6,0.0116
690.5,0.0115
690.4,0.0117
690.3,0.0120
690.2,0.0122
690.1,0.0120
690.0,0.0116
689.9,0.0113
689.8,0.0114
689.7,0.0116
689.6,0.0116
689.5,0.0117
689.4,0.0120
689.3,0.0119
689.2,0.0117
689.1,0.0116
689.0,0.0111
688.9,0.0117
688.8,0.0118
688.7,0.0120
688.6,0.0117
688.5,0.0118
688.4,0.0116
688.3,0.0115
688.2,0.0122
688.1,0.0119
688.0,0.0113
687.9,0.0117
687.8,0.0116
687.7,0.0121
687.6,0.0125
687.5,0.0122
687.4,0.0118
687.3,0.0122
687.2,0.0119
687.1,0.0119
687.0,0.0115
686.9,0.0119
686.8,0.0117
686.7,0.0118
686.6,0.0115
686.5,0.0121
686.4,0.0124
686.3,0.0128
686.2,0.0128
686.1,0.0120
686.0,0.0122
685.9,0.0122
685.8,0.0118
685.7,0.0123
685.6,0.0120
685.5,0.0123
685.4,0.0124
685.3,0.0123
685.2,0.0122
685.1,0.0125
685.0,0.0121
684.9,0.0120
684.8,0.0122
684.7,0.0124
684.6,0.0124
684.5,0.0121
684.4,0.0123
684.3,0.0127
684.2,0.0129
684.1,0.0121
684.0,0.0121
683.9,0.0130
683.8,0.0124
683.7,0.0122
683.6,0.0125
683.5,0.0126
683.4,0.0122
683.3,0.0120
683.2,0.0125
683.1,0.0120
683.0,0.0135
682.9,0.0122
682.8,0.0125
682.7,0.0122
682.6,0.0123
682.5,0.0125
682.4,0.0129
682.3,0.0126
682.2,0.0126
682.1,0.0125
682.0,0.0131
681.9,0.0132
681.8,0.0130
681.7,0.0129
681.6,0.0134
681.5,0.0126
681.4,0.0128
681.3,0.0122
681.2,0.0125
681.1,0.0125
681.0,0.0126
680.9,0.0134
680.8,0.0129
680.7,0.0129
680.6,0.0125
680.5,0.0128
680.4,0.0128
680.3,0.0128
680.2,0.0129
680.1,0.0135
680.0,0.0124
679.9,0.0132
679.8,0.0131
679.7,0.0127
679.6,0.0128
679.5,0.0129
679.4,0.0131
679.3,0.0131
679.2,0.0130
679.1,0.0134
679.0,0.0135
678.9,0.0135
678.8,0.0133
678.7,0.0134
678.6,0.0131
678.5,0.0136
678.4,0.0134
678.3,0.0133
678.2,0.0130
678.1,0.0133
678.0,0.0135
677.9,0.0133
677.8,0.0135
677.7,0.0130
677.6,0.0135
677.5,0.0135
677.4,0.0135
677.3,0.0137
677.2,0.0135
677.1,0.0134
677.0,0.0133
676.9,0.0135
676.8,0.0137
676.7,0.0136
676.6,0.0136
676.5,0.0136
676.4,0.0131
676.3,0.0131
676.2,0.0136
676.1,0.0140
676.0,0.0140
675.9,0.0142
675.8,0.0139
675.7,0.0140
675.6,0.0141
675.5,0.0139
675.4,0.0134
675.3,0.0137
675.2,0.0140
675.1,0.0135
675.0,0.0137
674.9,0.0139
674.8,0.0143
674.7,0.0145
674.6,0.0140
674.5,0.0141
674.4,0.0144
674.3,0.0141
674.2,0.0139
674.1,0.0139
674.0,0.0142
673.9,0.0143
673.8,0.0139
673.7,0.0136
673.6,0.0139
673.5,0.0141
673.4,0.0142
673.3,0.0138
673.2,0.0139
673.1,0.0142
673.0,0.0142
672.9,0.0143
672.8,0.0142
672.7,0.0140
672.6,0.0140
672.5,0.0142
672.4,0.0143
672.3,0.0142
672.2,0.0144
672.1,0.0142
672.0,0.0144
671.9,0.0147
671.8,0.0144
671.7,0.0143
671.6,0.0144
671.5,0.0144
671.4,0.0145
671.3,0.0147
671.2,0.0149
671.1,0.0150
671.0,0.0149
670.9,0.0144
670.8,0.0143
670.7,0.0146
670.6,0.0146
670.5,0.0144
670.4,0.0144
670.3,0.0145
670.2,0.0147
670.1,0.0144
670.0,0.0147
669.9,0.0150
669.8,0.0149
669.7,0.0145
669.6,0.0143
669.5,0.0145
669.4,0.0148
669.3,0.0148
669.2,0.0150
669.1,0.0149
669.0,0.0151
668.9,0.0150
668.8,0.0152
668.7,0.0151
668.6,0.0149
668.5,0.0151
668.4,0.0148
668.3,0.0149
668.2,0.0148
668.1,0.0152
668.0,0.0151
667.9,0.0155
667.8,0.0149
667.7,0.0146
667.6,0.0149
667.5,0.0152
667.4,0.0152
667.3,0.0148
667.2,0.0154
667.1,0.0149
667.0,0.0148
666.9,0.0149
666.8,0.0149
666.7,0.0148
666.6,0.0150
666.5,0.0145
666.4,0.0147
666.3,0.0153
666.2,0.0151
666.1,0.0150
666.0,0.0147
665.9,0.0146
665.8,0.0151
665.7,0.0154
665.6,0.0153
665.5,0.0148
665.4,0.0150
665.3,0.0149
665.2,0.0147
665.1,0.0147
665.0,0.0150
664.9,0.0148
664.8,0.0147
664.7,0.0149
664.6,0.0146
664.5,0.0142
664.4,0.0142
664.3,0.0148
664.2,0.0151
664.1,0.0149
664.0,0.0151
663.9,0.0144
663.8,0.0141
663.7,0.0148
663.6,0.0150
663.5,0.0147
663.4,0.0149
663.3,0.0151
663.2,0.0145
663.1,0.0145
663.0,0.0147
662.9,0.0149
662.8,0.0148
662.7,0.0145
662.6,0.0141
662.5,0.0145
662.4,0.0143
662.3,0.0147
662.2,0.0148
662.1,0.0140
662.0,0.0144
661.9,0.0144
661.8,0.0145
661.7,0.0147
661.6,0.0147
661.5,0.0149
661.4,0.0143
661.3,0.0148
661.2,0.0146
661.1,0.0151
661.0,0.0153
660.9,0.0143
660.8,0.0137
660.7,0.0141
660.6,0.0146
660.5,0.0146
660.4,0.0144
660.3,0.0149
660.2,0.0145
660.1,0.0145
660.0,0.0146
659.9,0.0143
659.8,0.0147
659.7,0.0145
659.6,0.0146
659.5,0.0145
659.4,0.0140
659.3,0.0142
659.2,0.0148
659.1,0.0150
659.0,0.0143
658.9,0.0142
658.8,0.0142
658.7,0.0144
658.6,0.0140
658.5,0.0141
658.4,0.0143
658.3,0.0143
658.2,0.0144
658.1,0.0147
658.0,0.0141
657.9,0.0142
657.8,0.0142
657.7,0.0140
657.6,0.0141
657.5,0.0144
657.4,0.0140
657.3,0.0141
657.2,0.0144
657.1,0.0144
657.0,0.0142
656.9,0.0137
656.8,0.0141
656.7,0.0137
656.6,0.0139
656.5,0.0140
656.4,0.0141
656.3,0.0142
656.2,0.0141
656.1,0.0139
656.0,0.0137
655.9,0.0134
655.8,0.0139
655.7,0.0138
655.6,0.0139
655.5,0.0141
655.4,0.0140
655.3,0.0140
655.2,0.0137
655.1,0.0133
655.0,0.0137
654.9,0.0138
654.8,0.0138
654.7,0.0130
654.6,0.0136
654.5,0.0137
654.4,0.0140
654.3,0.0135
654.2,0.0136
654.1,0.0134
654.0,0.0139
653.9,0.0140
653.8,0.0137
653.7,0.0135
653.6,0.0131
653.5,0.0132
653.4,0.0136
653.3,0.0134
653.2,0.0137
653.1,0.0138
653.0,0.0135
652.9,0.0139
652.8,0.0137
652.7,0.0137
652.6,0.0134
652.5,0.0135
652.4,0.0133
652.3,0.0138
652.2,0.0136
652.1,0.0134
652.0,0.0134
651.9,0.0132
651.8,0.0132
651.7,0.0133
651.6,0.0134
651.5,0.0136
651.4,0.0137
651.3,0.0137
651.2,0.0135
651.1,0.0136
651.0,0.0138
650.9,0.0134
650.8,0.0130
650.7,0.0131
650.6,0.0135
650.5,0.0137
650.4,0.0135
650.3,0.0131
650.2,0.0135
650.1,0.0138
650.0,0.0136
649.9,0.0132
649.8,0.0135
649.7,0.0136
649.6,0.0136
649.5,0.0134
649.4,0.0133
649.3,0.0134
649.2,0.0132
649.1,0.0131
649.0,0.0128
648.9,0.0128
648.8,0.0131
648.7,0.0131
648.6,0.0132
648.5,0.0131
648.4,0.0132
648.3,0.0132
648.2,0.0131
648.1,0.0133
648.0,0.0135
647.9,0.0136
647.8,0.0134
647.7,0.0134
647.6,0.0133
647.5,0.0130
647.4,0.0130
647.3,0.0129
647.2,0.0132
647.1,0.0133
647.0,0.0131
646.9,0.0132
646.8,0.0134
646.7,0.0135
646.6,0.0133
646.5,0.0132
646.4,0.0135
646.3,0.0135
646.2,0.0132
646.1,0.0132
646.0,0.0134
645.9,0.0132
645.8,0.0131
645.7,0.0132
645.6,0.0130
645.5,0.0132
645.4,0.0132
645.3,0.0132
645.2,0.0134
645.1,0.0134
645.0,0.0134
644.9,0.0132
644.8,0.0136
644.7,0.0135
644.6,0.0136
644.5,0.0137
644.4,0.0133
644.3,0.0132
644.2,0.0136
644.1,0.0138
644.0,0.0134
643.9,0.0130
643.8,0.0132
643.7,0.0132
643.6,0.0133
643.5,0.0136
643.4,0.0136
643.3,0.0135
643.2,0.0131
643.1,0.0134
643.0,0.0132
642.9,0.0130
642.8,0.0132
642.7,0.0134
642.6,0.0130
642.5,0.0135
642.4,0.0137
642.3,0.0133
642.2,0.0132
642.1,0.0135
642.0,0.0133
641.9,0.0140
641.8,0.0140
641.7,0.0138
641.6,0.0135
641.5,0.0138
641.4,0.0134
641.3,0.0139
641.2,0.0137
641.1,0.0137
641.0,0.0135
640.9,0.0137
640.8,0.0141
640.7,0.0134
640.6,0.0137
640.5,0.0138
640.4,0.0137
640.3,0.0139
640.2,0.0133
640.1,0.0133
640.0,0.0137
639.9,0.0130
639.8,0.0139
639.7,0.0130
639.6,0.0133
639.5,0.0133
639.4,0.0140
639.3,0.0139
639.2,0.0133
639.1,0.0137
639.0,0.0132
638.9,0.0133
638.8,0.0134
638.7,0.0136
638.6,0.0140
638.5,0.0136
638.4,0.0140
638.3,0.0142
638.2,0.0138
638.1,0.0139
638.0,0.0141
637.9,0.0136
637.8,0.0137
637.7,0.0141
637.6,0.0134
637.5,0.0142
637.4,0.0142
637.3,0.0141
637.2,0.0141
637.1,0.0139
637.0,0.0137
636.9,0.0140
636.8,0.0144
636.7,0.0139
636.6,0.0142
636.5,0.0144
636.4,0.0136
636.3,0.0137
636.2,0.0143
636.1,0.0144
636.0,0.0137
635.9,0.0139
635.8,0.0137
635.7,0.0142
635.6,0.0135
635.5,0.0139
635.4,0.0141
635.3,0.0139
635.2,0.0141
635.1,0.0136
635.0,0.0141
634.9,0.0141
634.8,0.0137
634.7,0.0142
634.6,0.0143
634.5,0.0140
634.4,0.0139
634.3,0.0145
634.2,0.0145
634.1,0.0142
634.0,0.0140
633.9,0.0138
633.8,0.0142
633.7,0.0146
633.6,0.0142
633.5,0.0146
633.4,0.0145
633.3,0.0145
633.2,0.0144
633.1,0.0137
633.0,0.0148
632.9,0.0142
632.8,0.0145
632.7,0.0141
632.6,0.0141
632.5,0.0136
632.4,0.0145
632.3,0.0143
632.2,0.0139
632.1,0.0144
632.0,0.0142
631.9,0.0146
631.8,0.0144
631.7,0.0144
631.6,0.0145
631.5,0.0148
631.4,0.0148
631.3,0.0143
631.2,0.0142
631.1,0.0143
631.0,0.0145
630.9,0.0143
630.8,0.0144
630.7,0.0141
630.6,0.0147
630.5,0.0139
630.4,0.0143
630.3,0.0144
630.2,0.0142
630.1,0.0144
630.0,0.0145
629.9,0.0144
629.8,0.0141
629.7,0.0146
629.6,0.0146
629.5,0.0148
629.4,0.0147
629.3,0.0143
629.2,0.0146
629.1,0.0149
629.0,0.0147
628.9,0.0148
628.8,0.0146
628.7,0.0150
628.6,0.0149
628.5,0.0146
628.4,0.0152
628.3,0.0150
628.2,0.0149
628.1,0.0147
628.0,0.0151
627.9,0.0151
627.8,0.0150
627.7,0.0145
627.6,0.0146
627.5,0.0149
627.4,0.0149
627.3,0.0150
627.2,0.0152
627.1,0.0151
627.0,0.0145
626.9,0.0144
626.8,0.0144
626.7,0.0145
626.6,0.0144
626.5,0.0144
626.4,0.0149
626.3,0.0151
626.2,0.0148
626.1,0.0146
626.0,0.0148
625.9,0.0150
625.8,0.0148
625.7,0.0146
625.6,0.0148
625.5,0.0149
625.4,0.0148
625.3,0.0147
625.2,0.0149
625.1,0.0151
625.0,0.0148
624.9,0.0148
624.8,0.0153
624.7,0.0154
624.6,0.0153
624.5,0.0154
624.4,0.0151
624.3,0.0149
624.2,0.0151
624.1,0.0151
624.0,0.0151
623.9,0.0153
623.8,0.0156
623.7,0.0156
623.6,0.0152
623.5,0.0151
623.4,0.0153
623.3,0.0152
623.2,0.0152
623.1,0.0157
623.0,0.0155
622.9,0.0151
622.8,0.0153
622.7,0.0151
622.6,0.0149
622.5,0.0150
622.4,0.0151
622.3,0.0151
622.2,0.0152
622.1,0.0154
622.0,0.0154
621.9,0.0154
621.8,0.0154
621.7,0.0153
621.6,0.0151
621.5,0.0151
621.4,0.0152
621.3,0.0153
621.2,0.0154
621.1,0.0156
621.0,0.0156
620.9,0.0160
620.8,0.0158
620.7,0.0153
620.6,0.0152
620.5,0.0156
620.4,0.0154
620.3,0.0153
620.2,0.0152
620.1,0.0150
620.0,0.0154
619.9,0.0154
619.8,0.0151
619.7,0.0151
619.6,0.0152
619.5,0.0150
619.4,0.0155
619.3,0.0154
619.2,0.0155
619.1,0.0153
619.0,0.0154
618.9,0.0153
618.8,0.0151
618.7,0.0152
618.6,0.0153
618.5,0.0158
618.4,0.0155
618.3,0.0155
618.2,0.0152
618.1,0.0154
618.0,0.0152
617.9,0.0151
617.8,0.0151
617.7,0.0153
617.6,0.0156
617.5,0.0157
617.4,0.0157
617.3,0.0155
617.2,0.0152
617.1,0.0152
617.0,0.0157
616.9,0.0154
616.8,0.0153
616.7,0.0157
616.6,0.0154
616.5,0.0153
616.4,0.0152
616.3,0.0154
616.2,0.0151
616.1,0.0156
616.0,0.0153
615.9,0.0148
615.8,0.0152
615.7,0.0149
615.6,0.0153
615.5,0.0154
615.4,0.0155
615.3,0.0152
615.2,0.0150
615.1,0.0157
615.0,0.0154
614.9,0.0152
614.8,0.0153
614.7,0.0155
614.6,0.0151
614.5,0.0148
614.4,0.0154
614.3,0.0150
614.2,0.0153
614.1,0.0150
614.0,0.0154
613.9,0.0153
613.8,0.0148
613.7,0.0155
613.6,0.0150
613.5,0.0149
613.4,0.0150
613.3,0.0150
613.2,0.0154
613.1,0.0150
613.0,0.0147
612.9,0.0153
612.8,0.0150
612.7,0.0155
612.6,0.0152
612.5,0.0153
612.4,0.0147
612.3,0.0150
612.2,0.0152
612.1,0.0153
612.0,0.0151
611.9,0.0149
611.8,0.0151
611.7,0.0149
611.6,0.0146
611.5,0.0144
611.4,0.0151
611.3,0.0151
611.2,0.0145
611.1,0.0147
611.0,0.0149
610.9,0.0152
610.8,0.0147
610.7,0.0153
610.6,0.0149
610.5,0.0148
610.4,0.0144
610.3,0.0145
610.2,0.0150
610.1,0.0150
610.0,0.0152
609.9,0.0145
609.8,0.0143
609.7,0.0146
609.6,0.0148
609.5,0.0149
609.4,0.0147
609.3,0.0146
609.2,0.0148
609.1,0.0145
609.0,0.0149
608.9,0.0144
608.8,0.0147
608.7,0.0145
608.6,0.0144
608.5,0.0144
608.4,0.0146
608.3,0.0148
608.2,0.0149
608.1,0.0145
608.0,0.0149
607.9,0.0145
607.8,0.0142
607.7,0.0140
607.6,0.0143
607.5,0.0142
607.4,0.0142
607.3,0.0139
607.2,0.0139
607.1,0.0143
607.0,0.0139
606.9,0.0140
606.8,0.0139
606.7,0.0141
606.6,0.0140
606.5,0.0141
606.4,0.0142
606.3,0.0143
606.2,0.0143
606.1,0.0146
606.0,0.0143
605.9,0.0139
605.8,0.0139
605.7,0.0141
605.6,0.0140
605.5,0.0137
605.4,0.0141
605.3,0.0142
605.2,0.0142
605.1,0.0139
605.0,0.0142
604.9,0.0141
604.8,0.0139
604.7,0.0138
604.6,0.0140
604.5,0.0139
604.4,0.0135
604.3,0.0135
604.2,0.0138
604.1,0.0136
604.0,0.0137
603.9,0.0136
603.8,0.0138
603.7,0.0138
603.6,0.0137
603.5,0.0134
603.4,0.0133
603.3,0.0133
603.2,0.0134
603.1,0.0136
603.0,0.0134
602.9,0.0135
602.8,0.0134
602.7,0.0134
602.6,0.0135
602.5,0.0136
602.4,0.0136
602.3,0.0134
602.2,0.0133
602.1,0.0133
602.0,0.0134
601.9,0.0134
601.8,0.0134
601.7,0.0135
601.6,0.0133
601.5,0.0132
601.4,0.0132
601.3,0.0132
601.2,0.0128
601.1,0.0129
601.0,0.0130
600.9,0.0129
600.8,0.0131
600.7,0.0131
600.6,0.0129
600.5,0.0130
600.4,0.0129
600.3,0.0128
600.2,0.0129
600.1,0.0128
600.0,0.0130
599.9,0.0131
599.8,0.0129
599.7,0.0127
599.6,0.0126
599.5,0.0128
599.4,0.0127
599.3,0.0127
599.2,0.0129
599.1,0.0129
599.0,0.0126
598.9,0.0128
598.8,0.0129
598.7,0.0127
598.6,0.0130
598.5,0.0132
598.4,0.0129
598.3,0.0128
598.2,0.0127
598.1,0.0127
598.0,0.0124
597.9,0.0125
597.8,0.0126
597.7,0.0125
597.6,0.0127
597.5,0.0130
597.4,0.0126
597.3,0.0120
597.2,0.0123
597.1,0.0126
597.0,0.0126
596.9,0.0126
596.8,0.0121
596.7,0.0122
596.6,0.0123
596.5,0.0121
596.4,0.0120
596.3,0.0120
596.2,0.0123
596.1,0.0125
596.0,0.0124
595.9,0.0125
595.8,0.0123
595.7,0.0125
595.6,0.0123
595.5,0.0122
595.4,0.0125
595.3,0.0124
595.2,0.0123
595.1,0.0124
595.0,0.0120
594.9,0.0120
594.8,0.0123
594.7,0.0123
594.6,0.0117
594.5,0.0118
594.4,0.0123
594.3,0.0122
594.2,0.0122
594.1,0.0120
594.0,0.0117
593.9,0.0120
593.8,0.0122
593.7,0.0120
593.6,0.0118
593.5,0.0119
593.4,0.0119
593.3,0.0119
593.2,0.0115
593.1,0.0115
593.0,0.0116
592.9,0.0117
592.8,0.0120
592.7,0.0122
592.6,0.0118
592.5,0.0121
592.4,0.0119
592.3,0.0120
592.2,0.0119
592.1,0.0121
592.0,0.0119
591.9,0.0117
591.8,0.0114
591.7,0.0118
591.6,0.0116
591.5,0.0120
591.4,0.0118
591.3,0.0117
591.2,0.0117
591.1,0.0117
591.0,0.0114
590.9,0.0114
590.8,0.0117
590.7,0.0117
590.6,0.0119
590.5,0.0117
590.4,0.0115
590.3,0.0115
590.2,0.0117
590.1,0.0118
590.0,0.0116
589.9,0.0116
589.8,0.0116
589.7,0.0118
589.6,0.0116
589.5,0.0115
589.4,0.0117
589.3,0.0119
589.2,0.0113
589.1,0.0114
589.0,0.0115
588.9,0.0117
588.8,0.0113
588.7,0.0114
588.6,0.0112
588.5,0.0112
588.4,0.0116
588.3,0.0113
588.2,0.0111
588.1,0.0113
588.0,0.0114
587.9,0.0112
587.8,0.0113
587.7,0.0111
587.6,0.0114
587.5,0.0115
587.4,0.0107
587.3,0.0107
587.2,0.0112
587.1,0.0113
587.0,0.0112
586.9,0.0112
586.8,0.0115
586.7,0.0114
586.6,0.0112
586.5,0.0112
586.4,0.0114
586.3,0.0110
586.2,0.0111
586.1,0.0112
586.0,0.0108
585.9,0.0111
585.8,0.0109
585.7,0.0108
585.6,0.0110
585.5,0.0109
585.4,0.0105
585.3,0.0106
585.2,0.0110
585.1,0.0113
585.0,0.0114
584.9,0.0113
584.8,0.0112
584.7,0.0112
584.6,0.0113
584.5,0.0113
584.4,0.0114
584.3,0.0111
584.2,0.0106
584.1,0.0108
584.0,0.0107
583.9,0.0105
583.8,0.0110
583.7,0.0111
583.6,0.0111
583.5,0.0110
583.4,0.0111
583.3,0.0107
583.2,0.0107
583.1,0.0109
583.0,0.0106
582.9,0.0106
582.8,0.0104
582.7,0.0104
582.6,0.0107
582.5,0.0104
582.4,0.0105
582.3,0.0106
582.2,0.0102
582.1,0.0105
582.0,0.0107
581.9,0.0103
581.8,0.0103
581.7,0.0108
581.6,0.0105
581.5,0.0109
581.4,0.0105
581.3,0.0105
581.2,0.0103
581.1,0.0104
581.0,0.0108
580.9,0.0111
580.8,0.0107
580.7,0.0104
580.6,0.0107
580.5,0.0106
580.4,0.0103
580.3,0.0107
580.2,0.0106
580.1,0.0103
580.0,0.0103
