Created as New Dataset,
nm,A
800.0,0.0005
799.9,-0.0007
799.8,0.0002
799.7,-0.0006
799.6,-0.0001
799.5,-0.0009
799.4,-0.0001
799.3,-0.0003
799.2,-0.0001
799.1,-0.0014
799.0,-0.0004
798.9,-0.0019
798.8,-0.0003
798.7,-0.0002
798.6,0.0001
798.5,-0.0014
798.4,-0.0002
798.3,0.0005
798.2,-0.0002
798.1,-0.0005
798.0,-0.0002
797.9,-0.0001
797.8,0.0008
797.7,-0.0002
797.6,-0.0008
797.5,-0.0009
797.4,-0.0000
797.3,-0.0008
797.2,0.0008
797.1,-0.0002
797.0,0.0006
796.9,-0.0006
796.8,-0.0000
796.7,-0.0005
796.6,-0.0003
796.5,0.0002
796.4,-0.0001
796.3,-0.0005
796.2,-0.0002
796.1,0.0002
796.0,0.0004
795.9,0.0003
795.8,0.0002
795.7,0.0002
795.6,0.0000
795.5,-0.0001
795.4,-0.0005
795.3,0.0009
795.2,0.0010
795.1,0.0002
795.0,0.0004
794.9,-0.0002
794.8,-0.0004
794.7,-0.0002
794.6,0.0002
794.5,0.0001
794.4,-0.0006
794.3,0.0002
794.2,-0.0002
794.1,-0.0000
794.0,-0.0002
793.9,0.0003
793.8,-0.0001
793.7,-0.0001
793.6,0.0007
793.5,-0.0004
793.4,-0.0009
793.3,-0.0004
793.2,-0.0006
793.1,0.0001
793.0,-0.0008
792.9,-0.0005
792.8,-0.0002
792.7,0.0002
792.6,-0.0002
792.5,-0.0007
792.4,-0.0003
792.3,0.0001
792.2,0.0006
792.1,0.0001
792.0,0.0005
791.9,0.0006
791.8,-0.0000
791.7,-0.0007
791.6,-0.0006
791.5,-0.0008
791.4,-0.0013
791.3,-0.0011
791.2,0.0001
791.1,-0.0003
791.0,0.0001
790.9,-0.0001
790.8,-0.0001
790.7,0.0006
790.6,0.0004
790.5,-0.0006
790.4,-0.0014
790.3,-0.0002
790.2,0.0009
790.1,0.0002
790.0,-0.0001
789.9,-0.0005
789.8,-0.0008
789.7,-0.0009
789.6,-0.0006
789.5,0.0002
789.4,0.0005
789.3,-0.0001
789.2,-0.0004
789.1,0.0005
789.0,0.0007
788.9,-0.0005
788.8,-0.0003
788.7,-0.0002
788.6,-0.0008
788.5,-0.0005
788.4,-0.0002
788.3,-0.0005
788.2,-0.0005
788.1,-0.0007
788.0,-0.0005
787.9,-0.0004
787.8,-0.0007
787.7,-0.0006
787.6,-0.0007
787.5,-0.0002
787.4,0.0003
787.3,0.0000
787.2,-0.0002
787.1,-0.0009
787.0,0.0001
786.9,0.0007
786.8,0.0000
786.7,-0.0001
786.6,-0.0007
786.5,-0.0007
786.4,-0.0001
786.3,-0.0002
786.2,-0.0001
786.1,-0.0002
786.0,-0.0006
785.9,-0.0004
785.8,-0.0007
785.7,-0.0009
785.6,-0.0008
785.5,-0.0003
785.4,-0.0006
785.3,-0.0005
785.2,-0.0007
785.1,-0.0009
785.0,-0.0016
784.9,-0.0011
784.8,-0.0006
784.7,-0.0014
784.6,-0.0007
784.5,-0.0002
784.4,0.0002
784.3,-0.0001
784.2,-0.0004
784.1,0.0000
784.0,0.0003
783.9,0.0000
783.8,-0.0004
783.7,-0.0005
783.6,-0.0007
783.5,-0.0008
783.4,0.0002
783.3,0.0000
783.2,0.0006
783.1,0.0003
783.0,0.0007
782.9,-0.0004
782.8,-0.0001
782.7,-0.0002
782.6,-0.0002
782.5,0.0001
782.4,-0.0001
782.3,0.0004
782.2,0.0000
782.1,-0.0001
782.0,0.0003
781.9,0.0000
781.8,0.0003
781.7,-0.0008
781.6,-0.0015
781.5,-0.0017
781.4,-0.0009
781.3,0.0004
781.2,-0.0006
781.1,-0.0006
781.0,-0.0007
780.9,-0.0004
780.8,-0.0005
780.7,-0.0003
780.6,0.0003
780.5,0.0002
780.4,-0.0000
780.3,-0.0007
780.2,-0.0016
780.1,-0.0007
780.0,-0.0005
779.9,0.0000
779.8,0.0002
779.7,-0.0006
779.6,-0.0008
779.5,0.0004
779.4,0.0006
779.3,-0.0008
779.2,0.0006
779.1,-0.0008
779.0,-0.0002
778.9,0.0006
778.8,-0.0000
778.7,-0.0006
778.6,-0.0012
778.5,-0.0002
778.4,-0.0015
778.3,-0.0007
778.2,0.0004
778.1,-0.0004
778.0,0.0004
777.9,-0.0001
777.8,-0.0010
777.7,-0.0011
777.6,-0.0000
777.5,-0.0003
777.4,0.0004
777.3,-0.0003
777.2,-0.0000
777.1,0.0010
777.0,-0.0002
776.9,0.0006
776.8,0.0003
776.7,-0.0005
776.6,0.0011
776.5,-0.0006
776.4,0.0006
776.3,-0.0005
776.2,-0.0006
776.1,-0.0001
776.0,-0.0000
775.9,0.0002
775.8,0.0010
775.7,-0.0004
775.6,-0.0009
775.5,-0.0003
775.4,-0.0005
775.3,0.0004
775.2,0.0002
775.1,-0.0008
775.0,-0.0006
774.9,0.0002
774.8,0.0001
774.7,-0.0006
774.6,0.0004
774.5,0.0007
774.4,-0.0004
774.3,-0.0007
774.2,-0.0000
774.1,0.0005
774.0,-0.0004
773.9,-0.0001
773.8,0.0005
773.7,0.0009
773.6,0.0002
773.5,-0.0002
773.4,0.0003
773.3,0.0002
773.2,0.0005
773.1,0.0005
773.0,-0.0004
772.9,-0.0004
772.8,-0.0003
772.7,0.0004
772.6,-0.0008
772.5,-0.0006
772.4,-0.0001
772.3,0.0003
772.2,-0.0002
772.1,-0.0009
772.0,0.0004
771.9,-0.0002
771.8,-0.0001
771.7,-0.0003
771.6,0.0000
771.5,0.0005
771.4,-0.0006
771.3,-0.0005
771.2,-0.0002
771.1,0.0003
771.0,0.0010
770.9,-0.0004
770.8,0.0002
770.7,0.0001
770.6,0.0003
770.5,-0.0001
770.4,-0.0010
770.3,-0.0005
770.2,0.0004
770.1,0.0007
770.0,0.0010
769.9,0.0000
769.8,-0.0002
769.7,0.0004
769.6,0.0002
769.5,0.0003
769.4,-0.0001
769.3,0.0000
769.2,0.0002
769.1,0.0004
769.0,-0.0000
768.9,-0.0003
768.8,0.0004
768.7,0.0004
768.6,-0.0001
768.5,-0.0006
768.4,-0.0005
768.3,0.0005
768.2,-0.0002
768.1,0.0002
768.0,0.0010
767.9,-0.0001
767.8,-0.0002
767.7,0.0006
767.6,0.0006
767.5,0.0004
767.4,0.0012
767.3,0.0006
767.2,0.0003
767.1,0.0003
767.0,0.0002
766.9,0.0004
766.8,0.0006
766.7,0.0003
766.6,0.0002
766.5,0.0000
766.4,0.0003
766.3,0.0008
766.2,0.0002
766.1,-0.0002
766.0,-0.0003
765.9,-0.0003
765.8,0.0002
765.7,0.0000
765.6,0.0001
765.5,0.0004
765.4,0.0006
765.3,0.0003
765.2,0.0001
765.1,0.0005
765.0,0.0010
764.9,0.0011
764.8,0.0006
764.7,0.0004
764.6,0.0003
764.5,0.0003
764.4,0.0007
764.3,0.0003
764.2,-0.0004
764.1,0.0001
764.0,0.0007
763.9,0.0003
763.8,0.0003
763.7,0.0004
763.6,-0.0001
763.5,0.0004
763.4,0.0007
763.3,0.0011
763.2,0.0009
763.1,0.0001
763.0,0.0003
762.9,0.0006
762.8,0.0005
762.7,0.0013
762.6,0.0014
762.5,0.0011
762.4,0.0013
762.3,0.0016
762.2,0.0011
762.1,0.0002
762.0,0.0011
761.9,0.0014
761.8,0.0007
761.7,0.0002
761.6,0.0006
761.5,0.0010
761.4,0.0005
761.3,0.0010
761.2,0.0006
761.1,0.0002
761.0,0.0008
760.9,0.0006
760.8,0.0009
760.7,0.0003
760.6,0.0004
760.5,0.0004
760.4,0.0005
760.3,0.0005
760.2,0.0003
760.1,0.0007
760.0,0.0012
759.9,0.0007
759.8,0.0006
759.7,0.0010
759.6,0.0009
759.5,0.0010
759.4,0.0006
759.3,0.0012
759.2,0.0013
759.1,0.0008
759.0,0.0005
758.9,0.0011
758.8,0.0012
758.7,0.0012
758.6,0.0005
758.5,0.0011
758.4,0.0010
758.3,0.0008
758.2,0.0012
758.1,0.0018
758.0,0.0020
757.9,0.0016
757.8,0.0028
757.7,0.0014
757.6,0.0007
757.5,0.0012
757.4,0.0015
757.3,0.0008
757.2,0.0017
757.1,0.0004
757.0,0.0018
756.9,0.0013
756.8,0.0014
756.7,0.0010
756.6,0.0013
756.5,0.0017
756.4,0.0011
756.3,0.0011
756.2,0.0017
756.1,0.0015
756.0,0.0009
755.9,0.0011
755.8,0.0015
755.7,0.0014
755.6,0.0002
755.5,0.0012
755.4,0.0007
755.3,0.0013
755.2,0.0007
755.1,0.0004
755.0,0.0005
754.9,0.0005
754.8,0.0015
754.7,0.0011
754.6,0.0026
754.5,0.0012
754.4,0.0005
754.3,0.0015
754.2,0.0013
754.1,0.0016
754.0,0.0018
753.9,0.0009
753.8,0.0011
753.7,0.0020
753.6,0.0009
753.5,0.0010
753.4,0.0022
753.3,0.0003
753.2,0.0011
753.1,0.0013
753.0,0.0014
752.9,0.0016
752.8,0.0022
752.7,0.0015
752.6,0.0015
752.5,0.0011
752.4,0.0014
752.3,0.0025
752.2,0.0017
752.1,0.0015
752.0,0.0005
751.9,0.0018
751.8,0.0014
751.7,0.0010
751.6,0.0017
751.5,0.0017
751.4,0.0008
751.3,0.0006
751.2,0.0013
751.1,0.0007
751.0,0.0014
750.9,0.0009
750.8,0.0007
750.7,0.0015
750.6,0.0024
750.5,0.0014
750.4,0.0019
750.3,0.0018
750.2,0.0016
750.1,0.0010
750.0,0.0017
749.9,0.0009
749.8,0.0018
749.7,0.0016
749.6,0.0013
749.5,0.0019
749.4,0.0016
749.3,0.0019
749.2,0.0016
749.1,0.0010
749.0,0.0015
748.9,0.0017
748.8,0.0017
748.7,0.0017
748.6,0.0011
748.5,0.0019
748.4,0.0016
748.3,0.0020
748.2,0.0017
748.1,0.0012
748.0,0.0010
747.9,0.0010
747.8,0.0016
747.7,0.0018
747.6,0.0026
747.5,0.0020
747.4,0.0017
747.3,0.0013
747.2,0.0021
747.1,0.0024
747.0,0.0016
746.9,0.0015
746.8,0.0013
746.7,0.0018
746.6,0.0016
746.5,0.0016
746.4,0.0016
746.3,0.0016
746.2,0.0020
746.1,0.0013
746.0,0.0019
745.9,0.0024
745.8,0.0014
745.7,0.0015
745.6,0.0019
745.5,0.0014
745.4,0.0010
745.3,0.0014
745.2,0.0017
745.1,0.0016
745.0,0.0015
744.9,0.0010
744.8,0.0016
744.7,0.0020
744.6,0.0018
744.5,0.0019
744.4,0.0019
744.3,0.0014
744.2,0.0013
744.1,0.0012
744.0,0.0016
743.9,0.0015
743.8,0.0011
743.7,0.0016
743.6,0.0017
743.5,0.0017
743.4,0.0018
743.3,0.0022
743.2,0.0023
743.1,0.0022
743.0,0.0016
742.9,0.0008
742.8,0.0012
742.7,0.0015
742.6,0.0012
742.5,0.0017
742.4,0.0020
742.3,0.0024
742.2,0.0026
742.1,0.0018
742.0,0.0012
741.9,0.0014
741.8,0.0013
741.7,0.0013
741.6,0.0014
741.5,0.0016
741.4,0.0018
741.3,0.0021
741.2,0.0019
741.1,0.0015
741.0,0.0017
740.9,0.0020
740.8,0.0020
740.7,0.0016
740.6,0.0016
740.5,0.0018
740.4,0.0017
740.3,0.0018
740.2,0.0018
740.1,0.0018
740.0,0.0012
739.9,0.0011
739.8,0.0018
739.7,0.0017
739.6,0.0020
739.5,0.0019
739.4,0.0017
739.3,0.0011
739.2,0.0009
739.1,0.0015
739.0,0.0018
738.9,0.0021
738.8,0.0020
738.7,0.0015
738.6,0.0014
738.5,0.0013
738.4,0.0012
738.3,0.0014
738.2,0.0019
738.1,0.0015
738.0,0.0012
737.9,0.0015
737.8,0.0019
737.7,0.0014
737.6,0.0015
737.5,0.0012
737.4,0.0013
737.3,0.0012
737.2,0.0018
737.1,0.0015
737.0,0.0014
736.9,0.0017
736.8,0.0019
736.7,0.0018
736.6,0.0018
736.5,0.0021
736.4,0.0021
736.3,0.0019
736.2,0.0014
736.1,0.0013
736.0,0.0015
735.9,0.0013
735.8,0.0016
735.7,0.0013
735.6,0.0017
735.5,0.0013
735.4,0.0012
735.3,0.0014
735.2,0.0018
735.1,0.0014
735.0,0.0018
734.9,0.0012
734.8,0.0015
734.7,0.0013
734.6,0.0009
734.5,0.0013
734.4,0.0011
734.3,0.0013
734.2,0.0017
734.1,0.0013
734.0,0.0005
733.9,0.0014
733.8,0.0016
733.7,0.0018
733.6,0.0017
733.5,0.0020
733.4,0.0016
733.3,0.0011
733.2,0.0010
733.1,0.0014
733.0,0.0012
732.9,0.0015
732.8,0.0007
732.7,0.0012
732.6,0.0018
732.5,0.0019
732.4,0.0017
732.3,0.0018
732.2,0.0019
732.1,0.0011
732.0,0.0008
731.9,0.0020
731.8,0.0019
731.7,0.0023
731.6,0.0019
731.5,0.0019
731.4,0.0019
731.3,0.0012
731.2,0.0021
731.1,0.0018
731.0,0.0008
730.9,0.0009
730.8,0.0012
730.7,0.0015
730.6,0.0008
730.5,0.0012
730.4,0.0017
730.3,0.0014
730.2,0.0014
730.1,0.0026
730.0,0.0018
729.9,0.0015
729.8,0.0014
729.7,0.0018
729.6,0.0018
729.5,0.0017
729.4,0.0014
729.3,0.0012
729.2,0.0013
729.1,0.0011
729.0,0.0017
728.9,0.0018
728.8,0.0014
728.7,0.0022
728.6,0.0021
728.5,0.0021
728.4,0.0019
728.3,0.0013
728.2,0.0017
728.1,0.0015
728.0,0.0018
727.9,0.0018
727.8,0.0013
727.7,0.0017
727.6,0.0010
727.5,0.0016
727.4,0.0015
727.3,0.0015
727.2,0.0010
727.1,0.0013
727.0,0.0015
726.9,0.0009
726.8,0.0014
726.7,0.0012
726.6,0.0020
726.5,0.0007
726.4,0.0018
726.3,0.0017
726.2,0.0014
726.1,0.0015
726.0,0.0012
725.9,0.0013
725.8,0.0019
725.7,0.0019
725.6,0.0014
725.5,0.0018
725.4,0.0015
725.3,0.0016
725.2,0.0022
725.1,0.0019
725.0,0.0020
724.9,0.0013
724.8,0.0015
724.7,0.0015
724.6,0.0013
724.5,0.0017
724.4,0.0012
724.3,0.0012
724.2,0.0013
724.1,0.0016
724.0,0.0009
723.9,0.0014
723.8,0.0014
723.7,0.0014
723.6,0.0015
723.5,0.0014
723.4,0.0009
723.3,0.0016
723.2,0.0021
723.1,0.0018
723.0,0.0016
722.9,0.0017
722.8,0.0017
722.7,0.0018
722.6,0.0014
722.5,0.0015
722.4,0.0019
722.3,0.0023
722.2,0.0020
722.1,0.0022
722.0,0.0021
721.9,0.0017
721.8,0.0013
721.7,0.0015
721.6,0.0014
721.5,0.0017
721.4,0.0017
721.3,0.0014
721.2,0.0020
721.1,0.0020
721.0,0.0021
720.9,0.0018
720.8,0.0017
720.7,0.0017
720.6,0.0017
720.5,0.0014
720.4,0.0014
720.3,0.0015
720.2,0.0014
720.1,0.0013
720.0,0.0016
719.9,0.0015
719.8,0.0014
719.7,0.0014
719.6,0.0017
719.5,0.0018
719.4,0.0017
719.3,0.0013
719.2,0.0013
719.1,0.0017
719.0,0.0020
718.9,0.0019
718.8,0.0019
718.7,0.0019
718.6,0.0017
718.5,0.0021
718.4,0.0023
718.3,0.0018
718.2,0.0016
718.1,0.0018
718.0,0.0021
717.9,0.0021
717.8,0.0020
717.7,0.0019
717.6,0.0018
717.5,0.0017
717.4,0.0019
717.3,0.0021
717.2,0.0019
717.1,0.0021
717.0,0.0023
716.9,0.0021
716.8,0.0023
716.7,0.0024
716.6,0.0021
716.5,0.0018
716.4,0.0018
716.3,0.0017
716.2,0.0018
716.1,0.0016
716.0,0.0019
715.9,0.0023
715.8,0.0021
715.7,0.0021
715.6,0.0018
715.5,0.0019
715.4,0.0024
715.3,0.0022
715.2,0.0024
715.1,0.0023
715.0,0.0025
714.9,0.0026
714.8,0.0022
714.7,0.0022
714.6,0.0023
714.5,0.0022
714.4,0.0023
714.3,0.0028
714.2,0.0025
714.1,0.0019
714.0,0.0022
713.9,0.0017
713.8,0.0024
713.7,0.0023
713.6,0.0022
713.5,0.0028
713.4,0.0026
713.3,0.0021
713.2,0.0023
713.1,0.0025
713.0,0.0019
712.9,0.0027
712.8,0.0027
712.7,0.0029
712.6,0.0024
712.5,0.0023
712.4,0.0029
712.3,0.0026
712.2,0.0032
712.1,0.0029
712.0,0.0029
711.9,0.0022
711.8,0.0028
711.7,0.0028
711.6,0.0028
711.5,0.0029
711.4,0.0031
711.3,0.0030
711.2,0.0033
711.1,0.0031
711.0,0.0030
710.9,0.0032
710.8,0.0028
710.7,0.0027
710.6,0.0034
710.5,0.0024
710.4,0.0029
710.3,0.0027
710.2,0.0032
710.1,0.0031
710.0,0.0029
709.9,0.0028
709.8,0.0029
709.7,0.0029
709.6,0.0033
709.5,0.0026
709.4,0.0026
709.3,0.0039
709.2,0.0030
709.1,0.0030
709.0,0.0035
708.9,0.0033
708.8,0.0032
708.7,0.0029
708.6,0.0027
708.5,0.0034
708.4,0.0034
708.3,0.0033
708.2,0.0024
708.1,0.0031
708.0,0.0028
707.9,0.0028
707.8,0.0027
707.7,0.0035
707.6,0.0031
707.5,0.0033
707.4,0.0035
707.3,0.0030
707.2,0.0032
707.1,0.0026
707.0,0.0037
706.9,0.0033
706.8,0.0028
706.7,0.0037
706.6,0.0036
706.5,0.0032
706.4,0.0033
706.3,0.0031
706.2,0.0035
706.1,0.0030
706.0,0.0045
705.9,0.0035
705.8,0.0027
705.7,0.0028
705.6,0.0036
705.5,0.0036
705.4,0.0033
705.3,0.0040
705.2,0.0043
705.1,0.0034
705.0,0.0036
704.9,0.0036
704.8,0.0039
704.7,0.0035
704.6,0.0036
704.5,0.0038
704.4,0.0035
704.3,0.0034
704.2,0.0029
704.1,0.0036
704.0,0.0035
703.9,0.0039
703.8,0.0044
703.7,0.0039
703.6,0.0037
703.5,0.0034
703.4,0.0036
703.3,0.0037
703.2,0.0039
703.1,0.0040
703.0,0.0034
702.9,0.0037
702.8,0.0033
702.7,0.0039
702.6,0.0036
702.5,0.0036
702.4,0.0038
702.3,0.0039
702.2,0.0039
702.1,0.0036
702.0,0.0036
701.9,0.0041
701.8,0.0035
701.7,0.0041
701.6,0.0041
701.5,0.0039
701.4,0.0040
701.3,0.0037
701.2,0.0041
701.1,0.0043
701.0,0.0040
700.9,0.0038
700.8,0.0035
700.7,0.0036
700.6,0.0042
700.5,0.0044
700.4,0.0035
700.3,0.0042
700.2,0.0043
700.1,0.0043
700.0,0.0039
699.9,0.0040
699.8,0.0038
699.7,0.0038
699.6,0.0038
699.5,0.0041
699.4,0.0036
699.3,0.0032
699.2,0.0035
699.1,0.0040
699.0,0.0036
698.9,0.0037
698.8,0.0040
698.7,0.0042
698.6,0.0042
698.5,0.0040
698.4,0.0037
698.3,0.0039
698.2,0.0035
698.1,0.0034
698.0,0.0038
697.9,0.0037
697.8,0.0033
697.7,0.0037
697.6,0.0037
697.5,0.0041
697.4,0.0042
697.3,0.0037
697.2,0.0033
697.1,0.0038
697.0,0.0039
696.9,0.0040
696.8,0.0044
696.7,0.0045
696.6,0.0039
696.5,0.0039
696.4,0.0037
696.3,0.0035
696.2,0.0035
696.1,0.0038
696.0,0.0042
695.9,0.0043
695.8,0.0039
695.7,0.0039
695.6,0.0043
695.5,0.0042
695.4,0.0039
695.3,0.0035
695.2,0.0037
695.1,0.0039
695.0,0.0038
694.9,0.0035
694.8,0.0035
694.7,0.0038
694.6,0.0044
694.5,0.0042
694.4,0.0038
694.3,0.0039
694.2,0.0038
694.1,0.0037
694.0,0.0039
693.9,0.0039
693.8,0.0039
693.7,0.0039
693.6,0.0039
693.5,0.0039
693.4,0.0039
693.3,0.0040
693.2,0.0044
693.1,0.0043
693.0,0.0040
692.9,0.0041
692.8,0.0039
692.7,0.0037
692.6,0.0037
692.5,0.0038
692.4,0.0043
692.3,0.0040
692.2,0.0040
692.1,0.0042
692.0,0.0041
691.9,0.0044
691.8,0.0040
691.7,0.0042
691.6,0.0047
691.5,0.0048
691.4,0.0042
691.3,0.0039
691.2,0.0041
691.1,0.0039
691.0,0.0039
690.9,0.0039
690.8,0.0044
690.7,0.0045
690.6,0.0045
690.5,0.0040
690.4,0.0041
690.3,0.0044
690.2,0.0046
690.1,0.0045
690.0,0.0044
689.9,0.0043
689.8,0.0046
689.7,0.0042
689.6,0.0039
689.5,0.0039
689.4,0.0043
689.3,0.0050
689.2,0.0050
689.1,0.0043
689.0,0.0039
688.9,0.0048
688.8,0.0050
688.7,0.0047
688.6,0.0042
688.5,0.0050
688.4,0.0045
688.3,0.0049
688.2,0.0049
688.1,0.0052
688.0,0.0045
687.9,0.0039
687.8,0.0043
687.7,0.0045
687.6,0.0043
687.5,0.0045
687.4,0.0046
687.3,0.0044
687.2,0.0045
687.1,0.0045
687.0,0.0042
686.9,0.0050
686.8,0.0046
686.7,0.0048
686.6,0.0044
686.5,0.0043
686.4,0.0052
686.3,0.0051
686.2,0.0050
686.1,0.0043
686.0,0.0047
685.9,0.0046
685.8,0.0048
685.7,0.0044
685.6,0.0046
685.5,0.0050
685.4,0.0049
685.3,0.0051
685.2,0.0050
685.1,0.0046
685.0,0.0044
684.9,0.0048
684.8,0.0049
684.7,0.0054
684.6,0.0047
684.5,0.0048
684.4,0.0056
684.3,0.0054
684.2,0.0051
684.1,0.0050
684.0,0.0053
683.9,0.0054
683.8,0.0051
683.7,0.0054
683.6,0.0051
683.5,0.0052
683.4,0.0048
683.3,0.0050
683.2,0.0052
683.1,0.0050
683.0,0.0059
682.9,0.0055
682.8,0.0048
682.7,0.0047
682.6,0.0047
682.5,0.0053
682.4,0.0047
682.3,0.0046
682.2,0.0050
682.1,0.0056
682.0,0.0058
681.9,0.0058
681.8,0.0050
681.7,0.0053
681.6,0.0057
681.5,0.0054
681.4,0.0047
681.3,0.0051
681.2,0.0052
681.1,0.0052
681.0,0.0054
680.9,0.0053
680.8,0.0053
680.7,0.0055
680.6,0.0047
680.5,0.0053
680.4,0.0052
680.3,0.0055
680.2,0.0054
680.1,0.0055
680.0,0.0051
679.9,0.0059
679.8,0.0051
679.7,0.0056
679.6,0.0054
679.5,0.0052
679.4,0.0053
679.3,0.0054
679.2,0.0051
679.1,0.0054
679.0,0.0051
678.9,0.0058
678.8,0.0057
678.7,0.0060
678.6,0.0055
678.5,0.0063
678.4,0.0062
678.3,0.0055
678.2,0.0051
678.1,0.0058
678.0,0.0057
677.9,0.0057
677.8,0.0056
677.7,0.0059
677.6,0.0059
677.5,0.0058
677.4,0.0060
677.3,0.0058
677.2,0.0055
677.1,0.0055
677.0,0.0061
676.9,0.0057
676.8,0.0057
676.7,0.0057
676.6,0.0055
676.5,0.0061
676.4,0.0059
676.3,0.0060
676.2,0.0062
676.1,0.0061
676.0,0.0062
675.9,0.0061
675.8,0.0058
675.7,0.0059
675.6,0.0062
675.5,0.0062
675.4,0.0061
675.3,0.0060
675.2,0.0063
675.1,0.0058
675.0,0.0059
674.9,0.0060
674.8,0.0061
674.7,0.0059
674.6,0.0060
674.5,0.0064
674.4,0.0066
674.3,0.0061
674.2,0.0060
674.1,0.0063
674.0,0.0063
673.9,0.0062
673.8,0.0063
673.7,0.0062
673.6,0.0062
673.5,0.0060
673.4,0.0063
673.3,0.0065
673.2,0.0063
673.1,0.0065
673.0,0.0064
672.9,0.0061
672.8,0.0065
672.7,0.0066
672.6,0.0065
672.5,0.0066
672.4,0.0069
672.3,0.0067
672.2,0.0068
672.1,0.0068
672.0,0.0069
671.9,0.0074
671.8,0.0070
671.7,0.0067
671.6,0.0066
671.5,0.0068
671.4,0.0067
671.3,0.0069
671.2,0.0070
671.1,0.0070
671.0,0.0068
670.9,0.0068
670.8,0.0070
670.7,0.0069
670.6,0.0067
670.5,0.0068
670.4,0.0069
670.3,0.0070
670.2,0.0070
670.1,0.0066
670.0,0.0066
669.9,0.0071
669.8,0.0069
669.7,0.0064
669.6,0.0066
669.5,0.0071
669.4,0.0072
669.3,0.0070
669.2,0.0069
669.1,0.0070
669.0,0.0072
668.9,0.0071
668.8,0.0071
668.7,0.0073
668.6,0.0071
668.5,0.0070
668.4,0.0069
668.3,0.0075
668.2,0.0071
668.1,0.0077
668.0,0.0076
667.9,0.0075
667.8,0.0073
667.7,0.0073
667.6,0.0074
667.5,0.0073
667.4,0.0073
667.3,0.0071
667.2,0.0075
667.1,0.0071
667.0,0.0071
666.9,0.0076
666.8,0.0075
666.7,0.0076
666.6,0.0072
666.5,0.0071
666.4,0.0075
666.3,0.0079
666.2,0.0078
666.1,0.0076
666.0,0.0073
665.9,0.0072
665.8,0.0075
665.7,0.0079
665.6,0.0076
665.5,0.0076
665.4,0.0075
665.3,0.0074
665.2,0.0074
665.1,0.0073
665.0,0.0075
664.9,0.0077
664.8,0.0078
664.7,0.0077
664.6,0.0075
664.5,0.0072
664.4,0.0073
664.3,0.0074
664.2,0.0075
664.1,0.0072
664.0,0.0076
663.9,0.0072
663.8,0.0073
663.7,0.0074
663.6,0.0072
663.5,0.0071
663.4,0.0079
663.3,0.0076
663.2,0.0073
663.1,0.0070
663.0,0.0080
662.9,0.0078
662.8,0.0073
662.7,0.0078
662.6,0.0071
662.5,0.0074
662.4,0.0071
662.3,0.0081
662.2,0.0079
662.1,0.0075
662.0,0.0079
661.9,0.0076
661.8,0.0074
661.7,0.0076
661.6,0.0079
661.5,0.0072
661.4,0.0069
661.3,0.0072
661.2,0.0079
661.1,0.0080
661.0,0.0077
660.9,0.0071
660.8,0.0069
660.7,0.0071
660.6,0.0073
660.5,0.0071
660.4,0.0071
660.3,0.0077
660.2,0.0074
660.1,0.0073
660.0,0.0076
659.9,0.0075
659.8,0.0078
659.7,0.0075
659.6,0.0078
659.5,0.0069
659.4,0.0071
659.3,0.0071
659.2,0.0077
659.1,0.0079
659.0,0.0073
658.9,0.0072
658.8,0.0075
658.7,0.0073
658.6,0.0072
658.5,0.0074
658.4,0.0075
658.3,0.0077
658.2,0.0074
658.1,0.0073
658.0,0.0074
657.9,0.0074
657.8,0.0074
657.7,0.0069
657.6,0.0069
657.5,0.0070
657.4,0.0068
657.3,0.0071
657.2,0.0072
657.1,0.0069
657.0,0.0067
656.9,0.0067
656.8,0.0067
656.7,0.0072
656.6,0.0071
656.5,0.0071
656.4,0.0072
656.3,0.0075
656.2,0.0072
656.1,0.0074
656.0,0.0072
655.9,0.0067
655.8,0.0072
655.7,0.0068
655.6,0.0069
655.5,0.0072
655.4,0.0070
655.3,0.0070
655.2,0.0066
655.1,0.0066
655.0,0.0070
654.9,0.0065
654.8,0.0069
654.7,0.0065
654.6,0.0067
654.5,0.0065
654.4,0.0069
654.3,0.0070
654.2,0.0072
654.1,0.0068
654.0,0.0066
653.9,0.0067
653.8,0.0068
653.7,0.0067
653.6,0.0063
653.5,0.0065
653.4,0.0063
653.3,0.0063
653.2,0.0069
653.1,0.0067
653.0,0.0065
652.9,0.0065
652.8,0.0060
652.7,0.0064
652.6,0.0063
652.5,0.0063
652.4,0.0061
652.3,0.0063
652.2,0.0066
652.1,0.0067
652.0,0.0064
651.9,0.0062
651.8,0.0064
651.7,0.0064
651.6,0.0062
651.5,0.0063
651.4,0.0066
651.3,0.0067
651.2,0.0067
651.1,0.0065
651.0,0.0065
650.9,0.0063
650.8,0.0063
650.7,0.0061
650.6,0.0061
650.5,0.0066
650.4,0.0065
650.3,0.0064
650.2,0.0065
650.1,0.0065
650.0,0.0063
649.9,0.0061
649.8,0.0064
649.7,0.0065
649.6,0.0062
649.5,0.0060
649.4,0.0060
649.3,0.0062
649.2,0.0061
649.1,0.0060
649.0,0.0055
648.9,0.0054
648.8,0.0057
648.7,0.0057
648.6,0.0059
648.5,0.0058
648.4,0.0058
648.3,0.0059
648.2,0.0061
648.1,0.0063
648.0,0.0063
647.9,0.0065
647.8,0.0065
647.7,0.0062
647.6,0.0060
647.5,0.0056
647.4,0.0056
647.3,0.0059
647.2,0.0056
647.1,0.0057
647.0,0.0059
646.9,0.0056
646.8,0.0056
646.7,0.0057
646.6,0.0056
646.5,0.0057
646.4,0.0057
646.3,0.0056
646.2,0.0056
646.1,0.0060
646.0,0.0062
645.9,0.0061
645.8,0.0058
645.7,0.0056
645.6,0.0055
645.5,0.0058
645.4,0.0058
645.3,0.0058
645.2,0.0060
645.1,0.0059
645.0,0.0057
644.9,0.0055
644.8,0.0062
644.7,0.0061
644.6,0.0058
644.5,0.0054
644.4,0.0056
644.3,0.0057
644.2,0.0057
644.1,0.0058
644.0,0.0059
643.9,0.0053
643.8,0.0055
643.7,0.0053
643.6,0.0056
643.5,0.0058
643.4,0.0055
643.3,0.0057
643.2,0.0057
643.1,0.0054
643.0,0.0054
642.9,0.0051
642.8,0.0054
642.7,0.0055
642.6,0.0051
642.5,0.0056
642.4,0.0057
642.3,0.0055
642.2,0.0053
642.1,0.0056
642.0,0.0054
641.9,0.0056
641.8,0.0057
641.7,0.0057
641.6,0.0052
641.5,0.0056
641.4,0.0054
641.3,0.0057
641.2,0.0059
641.1,0.0053
641.0,0.0051
640.9,0.0056
640.8,0.0059
640.7,0.0053
640.6,0.0053
640.5,0.0055
640.4,0.0053
640.3,0.0056
640.2,0.0061
640.1,0.0053
640.0,0.0052
639.9,0.0050
639.8,0.0056
639.7,0.0049
639.6,0.0050
639.5,0.0049
639.4,0.0054
639.3,0.0048
639.2,0.0056
639.1,0.0053
639.0,0.0050
638.9,0.0050
638.8,0.0055
638.7,0.0054
638.6,0.0055
638.5,0.0051
638.4,0.0051
638.3,0.0053
638.2,0.0048
638.1,0.0052
638.0,0.0047
637.9,0.0053
637.8,0.0057
637.7,0.0058
637.6,0.0046
637.5,0.0057
637.4,0.0057
637.3,0.0059
637.2,0.0053
637.1,0.0057
637.0,0.0056
636.9,0.0052
636.8,0.0055
636.7,0.0049
636.6,0.0055
636.5,0.0058
636.4,0.0048
636.3,0.0050
636.2,0.0053
636.1,0.0050
636.0,0.0049
635.9,0.0054
635.8,0.0050
635.7,0.0053
635.6,0.0055
635.5,0.0050
635.4,0.0049
635.3,0.0051
635.2,0.0054
635.1,0.0052
635.0,0.0053
634.9,0.0051
634.8,0.0048
634.7,0.0049
634.6,0.0052
634.5,0.0052
634.4,0.0048
634.3,0.0053
634.2,0.0050
634.1,0.0051
634.0,0.0049
633.9,0.0046
633.8,0.0053
633.7,0.0051
633.6,0.0051
633.5,0.0056
633.4,0.0051
633.3,0.0054
633.2,0.0051
633.1,0.0048
633.0,0.0053
632.9,0.0050
632.8,0.0052
632.7,0.0049
632.6,0.0047
632.5,0.0047
632.4,0.0054
632.3,0.0056
632.2,0.0049
632.1,0.0050
632.0,0.0050
631.9,0.0053
631.8,0.0051
631.7,0.0045
631.6,0.0051
631.5,0.0053
631.4,0.0051
631.3,0.0049
631.2,0.0051
631.1,0.0050
631.0,0.0051
630.9,0.0049
630.8,0.0048
630.7,0.0049
630.6,0.0051
630.5,0.0046
630.4,0.0046
630.3,0.0049
630.2,0.0048
630.1,0.0050
630.0,0.0049
629.9,0.0052
629.8,0.0051
629.7,0.0051
629.6,0.0048
629.5,0.0051
629.4,0.0051
629.3,0.0049
629.2,0.0053
629.1,0.0051
629.0,0.0048
628.9,0.0052
628.8,0.0051
628.7,0.0053
628.6,0.0050
628.5,0.0050
628.4,0.0052
628.3,0.0051
628.2,0.0052
628.1,0.0051
628.0,0.0052
627.9,0.0055
627.8,0.0052
627.7,0.0047
627.6,0.0046
627.5,0.0049
627.4,0.0049
627.3,0.0055
627.2,0.0054
627.1,0.0053
627.0,0.0050
626.9,0.0050
626.8,0.0051
626.7,0.0053
626.6,0.0048
626.5,0.0048
626.4,0.0052
626.3,0.0054
626.2,0.0051
626.1,0.0046
626.0,0.0045
625.9,0.0048
625.8,0.0050
625.7,0.0046
625.6,0.0047
625.5,0.0048
625.4,0.0048
625.3,0.0049
625.2,0.0050
625.1,0.0049
625.0,0.0045
624.9,0.0047
624.8,0.0050
624.7,0.0050
624.6,0.0049
624.5,0.0048
624.4,0.0047
624.3,0.0048
624.2,0.0049
624.1,0.0052
624.0,0.0051
623.9,0.0049
623.8,0.0049
623.7,0.0049
623.6,0.0051
623.5,0.0050
623.4,0.0048
623.3,0.0047
623.2,0.0048
623.1,0.0050
623.0,0.0047
622.9,0.0047
622.8,0.0049
622.7,0.0043
622.6,0.0042
622.5,0.0047
622.4,0.0045
622.3,0.0046
622.2,0.0045
622.1,0.0047
622.0,0.0048
621.9,0.0047
621.8,0.0050
621.7,0.0052
621.6,0.0049
621.5,0.0045
621.4,0.0046
621.3,0.0048
621.2,0.0049
621.1,0.0050
621.0,0.0049
620.9,0.0052
620.8,0.0051
620.7,0.0049
620.6,0.0048
620.5,0.0053
620.4,0.0053
620.3,0.0049
620.2,0.0049
620.1,0.0046
620.0,0.0048
619.9,0.0049
619.8,0.0048
619.7,0.0047
619.6,0.0048
619.5,0.0045
619.4,0.0048
619.3,0.0045
619.2,0.0046
619.1,0.0050
619.0,0.0045
618.9,0.0047
618.8,0.0045
618.7,0.0045
618.6,0.0046
618.5,0.0047
618.4,0.0042
618.3,0.0045
618.2,0.0039
618.1,0.0044
618.0,0.0045
617.9,0.0044
617.8,0.0045
617.7,0.0044
617.6,0.0047
617.5,0.0045
617.4,0.0044
617.3,0.0043
617.2,0.0044
617.1,0.0045
617.0,0.0049
616.9,0.0043
616.8,0.0040
616.7,0.0048
616.6,0.0045
616.5,0.0044
616.4,0.0042
616.3,0.0044
616.2,0.0044
616.1,0.0045
616.0,0.0044
615.9,0.0042
615.8,0.0044
615.7,0.0046
615.6,0.0046
615.5,0.0045
615.4,0.0049
615.3,0.0044
615.2,0.0044
615.1,0.0047
615.0,0.0045
614.9,0.0043
614.8,0.0047
614.7,0.0045
614.6,0.0040
614.5,0.0043
614.4,0.0048
614.3,0.0041
614.2,0.0043
614.1,0.0044
614.0,0.0043
613.9,0.0044
613.8,0.0040
613.7,0.0044
613.6,0.0039
613.5,0.0037
613.4,0.0043
613.3,0.0042
613.2,0.0045
613.1,0.0039
613.0,0.0037
612.9,0.0046
612.8,0.0040
612.7,0.0041
612.6,0.0040
612.5,0.0046
612.4,0.0040
612.3,0.0037
612.2,0.0041
612.1,0.0039
612.0,0.0040
611.9,0.0038
611.8,0.0038
611.7,0.0039
611.6,0.0038
611.5,0.0036
611.4,0.0041
611.3,0.0042
611.2,0.0038
611.1,0.0040
611.0,0.0034
610.9,0.0041
610.8,0.0042
610.7,0.0041
610.6,0.0040
610.5,0.0037
610.4,0.0036
610.3,0.0036
610.2,0.0040
610.1,0.0037
610.0,0.0040
609.9,0.0035
609.8,0.0036
609.7,0.0036
609.6,0.0037
609.5,0.0036
609.4,0.0037
609.3,0.0034
609.2,0.0037
609.1,0.0035
609.0,0.0036
608.9,0.0034
608.8,0.0035
608.7,0.0031
608.6,0.0032
608.5,0.0036
608.4,0.0034
608.3,0.0034
608.2,0.0034
608.1,0.0034
608.0,0.0036
607.9,0.0031
607.8,0.0031
607.7,0.0028
607.6,0.0030
607.5,0.0028
607.4,0.0028
607.3,0.0030
607.2,0.0030
607.1,0.0034
607.0,0.0031
606.9,0.0031
606.8,0.0031
606.7,0.0031
606.6,0.0029
606.5,0.0029
606.4,0.0028
606.3,0.0031
606.2,0.0031
606.1,0.0032
606.0,0.0031
605.9,0.0028
605.8,0.0027
605.7,0.0030
605.6,0.0029
605.5,0.0027
605.4,0.0029
605.3,0.0026
605.2,0.0028
605.1,0.0030
605.0,0.0033
604.9,0.0033
604.8,0.0027
604.7,0.0026
604.6,0.0022
604.5,0.0022
604.4,0.0021
604.3,0.0020
604.2,0.0024
604.1,0.0021
604.0,0.0026
603.9,0.0024
603.8,0.0025
603.7,0.0024
603.6,0.0025
603.5,0.0027
603.4,0.0025
603.3,0.0022
603.2,0.0023
603.1,0.0027
603.0,0.0026
602.9,0.0024
602.8,0.0020
602.7,0.0023
602.6,0.0027
602.5,0.0026
602.4,0.0024
602.3,0.0020
602.2,0.0020
602.1,0.0020
602.0,0.0020
601.9,0.0018
601.8,0.0020
601.7,0.0021
601.6,0.0020
601.5,0.0019
601.4,0.0018
601.3,0.0016
601.2,0.0014
601.1,0.0017
601.0,0.0020
600.9,0.0020
600.8,0.0018
600.7,0.0018
600.6,0.0017
600.5,0.0017
600.4,0.0015
600.3,0.0014
600.2,0.0016
600.1,0.0016
600.0,0.0019
599.9,0.0021
599.8,0.0017
599.7,0.0015
599.6,0.0012
599.5,0.0012
599.4,0.0012
599.3,0.0012
599.2,0.0015
599.1,0.0012
599.0,0.0010
598.9,0.0011
598.8,0.0009
598.7,0.0009
598.6,0.0012
598.5,0.0016
598.4,0.0013
598.3,0.0008
598.2,0.0013
598.1,0.0015
598.0,0.0011
597.9,0.0012
597.8,0.0012
597.7,0.0011
597.6,0.0012
597.5,0.0016
597.4,0.0015
597.3,0.0009
597.2,0.0009
597.1,0.0008
597.0,0.0008
596.9,0.0008
596.8,0.0008
596.7,0.0009
596.6,0.0007
596.5,0.0006
596.4,0.0005
596.3,0.0004
596.2,0.0005
596.1,0.0006
596.0,0.0005
595.9,0.0005
595.8,0.0005
595.7,0.0009
595.6,0.0006
595.5,0.0004
595.4,0.0007
595.3,0.0003
595.2,0.0002
595.1,0.0006
595.0,0.0005
594.9,0.0004
594.8,0.0002
594.7,0.0005
594.6,0.0005
594.5,0.0004
594.4,0.0007
594.3,0.0005
594.2,0.0002
594.1,0.0003
594.0,0.0003
593.9,0.0006
593.8,0.0005
593.7,0.0002
593.6,-0.0003
593.5,-0.0000
593.4,-0.0000
593.3,-0.0001
593.2,-0.0003
593.1,-0.0002
593.0,-0.0003
592.9,0.0002
592.8,-0.0001
592.7,0.0001
592.6,-0.0002
592.5,-0.0007
592.4,-0.0002
592.3,-0.0003
592.2,-0.0004
592.1,-0.0000
592.0,-0.0003
591.9,-0.0004
591.8,-0.0004
591.7,-0.0004
591.6,-0.0002
591.5,-0.0003
591.4,-0.0007
591.3,-0.0004
591.2,-0.0007
591.1,-0.0004
591.0,-0.0010
590.9,-0.0008
590.8,-0.0008
590.7,-0.0007
590.6,-0.0004
590.5,-0.0004
590.4,-0.0004
590.3,-0.0004
590.2,-0.0008
590.1,-0.0006
590.0,-0.0005
589.9,-0.0011
589.8,-0.0011
589.7,-0.0009
589.6,-0.0009
589.5,-0.0011
589.4,-0.0010
589.3,-0.0009
589.2,-0.0014
589.1,-0.0009
589.0,-0.0012
588.9,-0.0013
588.8,-0.0011
588.7,-0.0011
588.6,-0.0011
588.5,-0.0010
588.4,-0.0009
588.3,-0.0008
588.2,-0.0016
588.1,-0.0016
588.0,-0.0010
587.9,-0.0011
587.8,-0.0011
587.7,-0.0012
587.6,-0.0010
587.5,-0.0011
587.4,-0.0019
587.3,-0.0015
587.2,-0.0013
587.1,-0.0014
587.0,-0.0013
586.9,-0.0015
586.8,-0.0018
586.7,-0.0016
586.6,-0.0016
586.5,-0.0018
586.4,-0.0014
586.3,-0.0016
586.2,-0.0018
586.1,-0.0018
586.0,-0.0017
585.9,-0.0018
585.8,-0.0019
585.7,-0.0024
585.6,-0.0020
585.5,-0.0020
585.4,-0.0024
585.3,-0.0025
585.2,-0.0024
585.1,-0.0021
585.0,-0.0019
584.9,-0.0021
584.8,-0.0019
584.7,-0.0020
584.6,-0.0021
584.5,-0.0020
584.4,-0.0017
584.3,-0.0023
584.2,-0.0022
584.1,-0.0020
584.0,-0.0020
583.9,-0.0023
583.8,-0.0021
583.7,-0.0021
583.6,-0.0021
583.5,-0.0021
583.4,-0.0021
583.3,-0.0024
583.2,-0.0023
583.1,-0.0022
583.0,-0.0024
582.9,-0.0025
582.8,-0.0026
582.7,-0.0025
582.6,-0.0025
582.5,-0.0028
582.4,-0.0028
582.3,-0.0028
582.2,-0.0027
582.1,-0.0026
582.0,-0.0027
581.9,-0.0027
581.8,-0.0027
581.7,-0.0027
581.6,-0.0030
581.5,-0.0028
581.4,-0.0030
581.3,-0.0029
581.2,-0.0028
581.1,-0.0030
581.0,-0.0030
580.9,-0.0025
580.8,-0.0029
580.7,-0.0032
580.6,-0.0028
580.5,-0.0029
580.4,-0.0031
580.3,-0.0029
580.2,-0.0030
580.1,-0.0031
580.0,-0.0030
