Created as New Dataset,
nm,A
800.0,0.0034
799.9,0.0037
799.8,0.0041
799.7,0.0039
799.6,0.0036
799.5,0.0034
799.4,0.0036
799.3,0.0036
799.2,0.0031
799.1,0.0030
799.0,0.0033
798.9,0.0016
798.8,0.0030
798.7,0.0041
798.6,0.0036
798.5,0.0023
798.4,0.0046
798.3,0.0042
798.2,0.0040
798.1,0.0037
798.0,0.0032
797.9,0.0023
797.8,0.0041
797.7,0.0034
797.6,0.0026
797.5,0.0030
797.4,0.0027
797.3,0.0034
797.2,0.0049
797.1,0.0043
797.0,0.0042
796.9,0.0029
796.8,0.0033
796.7,0.0049
796.6,0.0041
796.5,0.0041
796.4,0.0046
796.3,0.0040
796.2,0.0032
796.1,0.0031
796.0,0.0043
795.9,0.0045
795.8,0.0046
795.7,0.0035
795.6,0.0037
795.5,0.0028
795.4,0.0027
795.3,0.0043
795.2,0.0044
795.1,0.0036
795.0,0.0036
794.9,0.0037
794.8,0.0035
794.7,0.0039
794.6,0.0043
794.5,0.0042
794.4,0.0040
794.3,0.0038
794.2,0.0040
794.1,0.0040
794.0,0.0028
793.9,0.0038
793.8,0.0048
793.7,0.0040
793.6,0.0038
793.5,0.0032
793.4,0.0031
793.3,0.0040
793.2,0.0037
793.1,0.0042
793.0,0.0033
792.9,0.0034
792.8,0.0033
792.7,0.0037
792.6,0.0035
792.5,0.0025
792.4,0.0025
792.3,0.0033
792.2,0.0038
792.1,0.0038
792.0,0.0043
791.9,0.0044
791.8,0.0039
791.7,0.0027
791.6,0.0033
791.5,0.0030
791.4,0.0027
791.3,0.0038
791.2,0.0044
791.1,0.0042
791.0,0.0039
790.9,0.0027
790.8,0.0030
790.7,0.0039
790.6,0.0035
790.5,0.0036
790.4,0.0042
790.3,0.0049
790.2,0.0048
790.1,0.0041
790.0,0.0041
789.9,0.0037
789.8,0.0035
789.7,0.0033
789.6,0.0032
789.5,0.0038
789.4,0.0043
789.3,0.0039
789.2,0.0040
789.1,0.0050
789.0,0.0049
788.9,0.0037
788.8,0.0039
788.7,0.0040
788.6,0.0035
788.5,0.0033
788.4,0.0033
788.3,0.0030
788.2,0.0029
788.1,0.0031
788.0,0.0036
787.9,0.0034
787.8,0.0037
787.7,0.0041
787.6,0.0043
787.5,0.0045
787.4,0.0039
787.3,0.0033
787.2,0.0032
787.1,0.0036
787.0,0.0043
786.9,0.0045
786.8,0.0040
786.7,0.0033
786.6,0.0033
786.5,0.0037
786.4,0.0040
786.3,0.0036
786.2,0.0036
786.1,0.0035
786.0,0.0032
785.9,0.0035
785.8,0.0033
785.7,0.0020
785.6,0.0027
785.5,0.0043
785.4,0.0040
785.3,0.0040
785.2,0.0036
785.1,0.0039
785.0,0.0034
784.9,0.0043
784.8,0.0043
784.7,0.0028
784.6,0.0036
784.5,0.0039
784.4,0.0045
784.3,0.0043
784.2,0.0040
784.1,0.0046
784.0,0.0043
783.9,0.0041
783.8,0.0040
783.7,0.0042
783.6,0.0035
783.5,0.0037
783.4,0.0045
783.3,0.0041
783.2,0.0041
783.1,0.0043
783.0,0.0047
782.9,0.0032
782.8,0.0037
782.7,0.0031
782.6,0.0048
782.5,0.0044
782.4,0.0043
782.3,0.0040
782.2,0.0034
782.1,0.0040
782.0,0.0040
781.9,0.0043
781.8,0.0043
781.7,0.0035
781.6,0.0032
781.5,0.0026
781.4,0.0030
781.3,0.0037
781.2,0.0037
781.1,0.0033
781.0,0.0031
780.9,0.0033
780.8,0.0033
780.7,0.0036
780.6,0.0047
780.5,0.0041
780.4,0.0042
780.3,0.0040
780.2,0.0036
780.1,0.0043
780.0,0.0040
779.9,0.0039
779.8,0.0044
779.7,0.0036
779.6,0.0028
779.5,0.0035
779.4,0.0036
779.3,0.0037
779.2,0.0046
779.1,0.0040
779.0,0.0040
778.9,0.0045
778.8,0.0048
778.7,0.0036
778.6,0.0028
778.5,0.0035
778.4,0.0042
778.3,0.0045
778.2,0.0042
778.1,0.0042
778.0,0.0046
777.9,0.0043
777.8,0.0034
777.7,0.0024
777.6,0.0036
777.5,0.0047
777.4,0.0050
777.3,0.0049
777.2,0.0036
777.1,0.0043
777.0,0.0043
776.9,0.0050
776.8,0.0037
776.7,0.0045
776.6,0.0044
776.5,0.0039
776.4,0.0039
776.3,0.0039
776.2,0.0033
776.1,0.0030
776.0,0.0033
775.9,0.0031
775.8,0.0048
775.7,0.0039
775.6,0.0035
775.5,0.0039
775.4,0.0029
775.3,0.0052
775.2,0.0045
775.1,0.0040
775.0,0.0038
774.9,0.0049
774.8,0.0036
774.7,0.0034
774.6,0.0043
774.5,0.0046
774.4,0.0034
774.3,0.0043
774.2,0.0036
774.1,0.0049
774.0,0.0049
773.9,0.0036
773.8,0.0042
773.7,0.0037
773.6,0.0042
773.5,0.0038
773.4,0.0035
773.3,0.0043
773.2,0.0045
773.1,0.0045
773.0,0.0052
772.9,0.0038
772.8,0.0040
772.7,0.0037
772.6,0.0043
772.5,0.0043
772.4,0.0039
772.3,0.0036
772.2,0.0041
772.1,0.0045
772.0,0.0042
771.9,0.0029
771.8,0.0037
771.7,0.0038
771.6,0.0036
771.5,0.0042
771.4,0.0031
771.3,0.0035
771.2,0.0038
771.1,0.0050
771.0,0.0045
770.9,0.0038
770.8,0.0038
770.7,0.0047
770.6,0.0048
770.5,0.0046
770.4,0.0033
770.3,0.0035
770.2,0.0038
770.1,0.0045
770.0,0.0051
769.9,0.0043
769.8,0.0040
769.7,0.0043
769.6,0.0037
769.5,0.0040
769.4,0.0045
769.3,0.0043
769.2,0.0043
769.1,0.0043
769.0,0.0044
768.9,0.0037
768.8,0.0042
768.7,0.0050
768.6,0.0047
768.5,0.0037
768.4,0.0041
768.3,0.0044
768.2,0.0037
768.1,0.0046
768.0,0.0047
767.9,0.0040
767.8,0.0043
767.7,0.0045
767.6,0.0039
767.5,0.0039
767.4,0.0049
767.3,0.0043
767.2,0.0040
767.1,0.0040
767.0,0.0031
766.9,0.0032
766.8,0.0042
766.7,0.0040
766.6,0.0039
766.5,0.0041
766.4,0.0044
766.3,0.0044
766.2,0.0037
766.1,0.0036
766.0,0.0042
765.9,0.0043
765.8,0.0041
765.7,0.0039
765.6,0.0039
765.5,0.0045
765.4,0.0048
765.3,0.0046
765.2,0.0045
765.1,0.0044
765.0,0.0042
764.9,0.0045
764.8,0.0048
764.7,0.0043
764.6,0.0041
764.5,0.0040
764.4,0.0042
764.3,0.0041
764.2,0.0038
764.1,0.0042
764.0,0.0044
763.9,0.0035
763.8,0.0040
763.7,0.0046
763.6,0.0038
763.5,0.0040
763.4,0.0042
763.3,0.0046
763.2,0.0043
763.1,0.0038
763.0,0.0044
762.9,0.0037
762.8,0.0039
762.7,0.0050
762.6,0.0047
762.5,0.0047
762.4,0.0050
762.3,0.0049
762.2,0.0050
762.1,0.0044
762.0,0.0047
761.9,0.0051
761.8,0.0044
761.7,0.0038
761.6,0.0046
761.5,0.0050
761.4,0.0048
761.3,0.0049
761.2,0.0040
761.1,0.0041
761.0,0.0045
760.9,0.0040
760.8,0.0045
760.7,0.0039
760.6,0.0042
760.5,0.0042
760.4,0.0040
760.3,0.0043
760.2,0.0038
760.1,0.0041
760.0,0.0050
759.9,0.0044
759.8,0.0050
759.7,0.0051
759.6,0.0046
759.5,0.0051
759.4,0.0045
759.3,0.0046
759.2,0.0047
759.1,0.0041
759.0,0.0037
758.9,0.0042
758.8,0.0042
758.7,0.0044
758.6,0.0047
758.5,0.0046
758.4,0.0047
758.3,0.0038
758.2,0.0048
758.1,0.0053
758.0,0.0045
757.9,0.0046
757.8,0.0052
757.7,0.0044
757.6,0.0045
757.5,0.0045
757.4,0.0049
757.3,0.0044
757.2,0.0050
757.1,0.0039
757.0,0.0044
756.9,0.0042
756.8,0.0046
756.7,0.0038
756.6,0.0048
756.5,0.0053
756.4,0.0047
756.3,0.0048
756.2,0.0048
756.1,0.0040
756.0,0.0047
755.9,0.0040
755.8,0.0049
755.7,0.0050
755.6,0.0041
755.5,0.0051
755.4,0.0038
755.3,0.0051
755.2,0.0047
755.1,0.0036
755.0,0.0039
754.9,0.0045
754.8,0.0052
754.7,0.0039
754.6,0.0055
754.5,0.0052
754.4,0.0042
754.3,0.0051
754.2,0.0051
754.1,0.0047
754.0,0.0057
753.9,0.0046
753.8,0.0046
753.7,0.0050
753.6,0.0047
753.5,0.0049
753.4,0.0047
753.3,0.0042
753.2,0.0051
753.1,0.0047
753.0,0.0047
752.9,0.0047
752.8,0.0048
752.7,0.0047
752.6,0.0038
752.5,0.0039
752.4,0.0053
752.3,0.0057
752.2,0.0045
752.1,0.0052
752.0,0.0042
751.9,0.0052
751.8,0.0044
751.7,0.0042
751.6,0.0049
751.5,0.0046
751.4,0.0045
751.3,0.0053
751.2,0.0045
751.1,0.0044
751.0,0.0053
750.9,0.0047
750.8,0.0050
750.7,0.0045
750.6,0.0048
750.5,0.0049
750.4,0.0046
750.3,0.0044
750.2,0.0045
750.1,0.0037
750.0,0.0053
749.9,0.0045
749.8,0.0054
749.7,0.0048
749.6,0.0048
749.5,0.0053
749.4,0.0054
749.3,0.0055
749.2,0.0053
749.1,0.0045
749.0,0.0049
748.9,0.0046
748.8,0.0047
748.7,0.0049
748.6,0.0041
748.5,0.0049
748.4,0.0047
748.3,0.0051
748.2,0.0055
748.1,0.0052
748.0,0.0041
747.9,0.0048
747.8,0.0056
747.7,0.0055
747.6,0.0058
747.5,0.0059
747.4,0.0053
747.3,0.0053
747.2,0.0052
747.1,0.0055
747.0,0.0053
746.9,0.0052
746.8,0.0046
746.7,0.0047
746.6,0.0054
746.5,0.0048
746.4,0.0043
746.3,0.0044
746.2,0.0051
746.1,0.0047
746.0,0.0052
745.9,0.0054
745.8,0.0050
745.7,0.0046
745.6,0.0050
745.5,0.0051
745.4,0.0046
745.3,0.0050
745.2,0.0054
745.1,0.0051
745.0,0.0049
744.9,0.0047
744.8,0.0048
744.7,0.0058
744.6,0.0056
744.5,0.0049
744.4,0.0048
744.3,0.0045
744.2,0.0044
744.1,0.0047
744.0,0.0048
743.9,0.0041
743.8,0.0042
743.7,0.0049
743.6,0.0048
743.5,0.0048
743.4,0.0048
743.3,0.0055
743.2,0.0059
743.1,0.0053
743.0,0.0050
742.9,0.0045
742.8,0.0044
742.7,0.0047
742.6,0.0046
742.5,0.0052
742.4,0.0052
742.3,0.0051
742.2,0.0051
742.1,0.0048
742.0,0.0049
741.9,0.0050
741.8,0.0047
741.7,0.0052
741.6,0.0050
741.5,0.0050
741.4,0.0051
741.3,0.0052
741.2,0.0053
741.1,0.0048
741.0,0.0049
740.9,0.0051
740.8,0.0052
740.7,0.0054
740.6,0.0054
740.5,0.0053
740.4,0.0054
740.3,0.0057
740.2,0.0054
740.1,0.0049
740.0,0.0048
739.9,0.0050
739.8,0.0054
739.7,0.0054
739.6,0.0058
739.5,0.0057
739.4,0.0055
739.3,0.0048
739.2,0.0048
739.1,0.0055
739.0,0.0051
738.9,0.0051
738.8,0.0058
738.7,0.0056
738.6,0.0047
738.5,0.0043
738.4,0.0051
738.3,0.0058
738.2,0.0062
738.1,0.0057
738.0,0.0052
737.9,0.0057
737.8,0.0052
737.7,0.0049
737.6,0.0047
737.5,0.0047
737.4,0.0051
737.3,0.0051
737.2,0.0048
737.1,0.0047
737.0,0.0049
736.9,0.0056
736.8,0.0053
736.7,0.0056
736.6,0.0051
736.5,0.0052
736.4,0.0058
736.3,0.0052
736.2,0.0055
736.1,0.0051
736.0,0.0053
735.9,0.0052
735.8,0.0055
735.7,0.0054
735.6,0.0052
735.5,0.0049
735.4,0.0050
735.3,0.0052
735.2,0.0060
735.1,0.0056
735.0,0.0057
734.9,0.0050
734.8,0.0058
734.7,0.0056
734.6,0.0056
734.5,0.0052
734.4,0.0052
734.3,0.0057
734.2,0.0060
734.1,0.0054
734.0,0.0053
733.9,0.0046
733.8,0.0050
733.7,0.0051
733.6,0.0054
733.5,0.0057
733.4,0.0058
733.3,0.0050
733.2,0.0053
733.1,0.0064
733.0,0.0056
732.9,0.0050
732.8,0.0042
732.7,0.0054
732.6,0.0058
732.5,0.0051
732.4,0.0048
732.3,0.0057
732.2,0.0054
732.1,0.0048
732.0,0.0049
731.9,0.0057
731.8,0.0054
731.7,0.0058
731.6,0.0059
731.5,0.0052
731.4,0.0052
731.3,0.0053
731.2,0.0058
731.1,0.0057
731.0,0.0049
730.9,0.0049
730.8,0.0055
730.7,0.0048
730.6,0.0048
730.5,0.0058
730.4,0.0058
730.3,0.0053
730.2,0.0059
730.1,0.0070
730.0,0.0057
729.9,0.0052
729.8,0.0057
729.7,0.0052
729.6,0.0056
729.5,0.0050
729.4,0.0049
729.3,0.0053
729.2,0.0053
729.1,0.0054
729.0,0.0056
728.9,0.0052
728.8,0.0055
728.7,0.0056
728.6,0.0050
728.5,0.0053
728.4,0.0054
728.3,0.0052
728.2,0.0053
728.1,0.0054
728.0,0.0050
727.9,0.0054
727.8,0.0053
727.7,0.0061
727.6,0.0056
727.5,0.0061
727.4,0.0052
727.3,0.0055
727.2,0.0054
727.1,0.0054
727.0,0.0053
726.9,0.0048
726.8,0.0058
726.7,0.0055
726.6,0.0054
726.5,0.0051
726.4,0.0054
726.3,0.0055
726.2,0.0056
726.1,0.0060
726.0,0.0053
725.9,0.0055
725.8,0.0065
725.7,0.0063
725.6,0.0054
725.5,0.0059
725.4,0.0053
725.3,0.0053
725.2,0.0058
725.1,0.0056
725.0,0.0058
724.9,0.0055
724.8,0.0058
724.7,0.0057
724.6,0.0047
724.5,0.0056
724.4,0.0054
724.3,0.0048
724.2,0.0056
724.1,0.0061
724.0,0.0052
723.9,0.0055
723.8,0.0056
723.7,0.0058
723.6,0.0056
723.5,0.0057
723.4,0.0050
723.3,0.0059
723.2,0.0057
723.1,0.0058
723.0,0.0063
722.9,0.0058
722.8,0.0054
722.7,0.0053
722.6,0.0053
722.5,0.0055
722.4,0.0060
722.3,0.0061
722.2,0.0057
722.1,0.0062
722.0,0.0062
721.9,0.0061
721.8,0.0060
721.7,0.0057
721.6,0.0054
721.5,0.0055
721.4,0.0057
721.3,0.0059
721.2,0.0060
721.1,0.0059
721.0,0.0058
720.9,0.0056
720.8,0.0056
720.7,0.0057
720.6,0.0055
720.5,0.0052
720.4,0.0057
720.3,0.0061
720.2,0.0058
720.1,0.0057
720.0,0.0054
719.9,0.0056
719.8,0.0054
719.7,0.0056
719.6,0.0061
719.5,0.0062
719.4,0.0057
719.3,0.0053
719.2,0.0055
719.1,0.0059
719.0,0.0064
718.9,0.0060
718.8,0.0061
718.7,0.0066
718.6,0.0063
718.5,0.0061
718.4,0.0061
718.3,0.0057
718.2,0.0058
718.1,0.0059
718.0,0.0061
717.9,0.0065
717.8,0.0065
717.7,0.0060
717.6,0.0059
717.5,0.0061
717.4,0.0057
717.3,0.0057
717.2,0.0058
717.1,0.0061
717.0,0.0063
716.9,0.0059
716.8,0.0061
716.7,0.0064
716.6,0.0061
716.5,0.0058
716.4,0.0055
716.3,0.0055
716.2,0.0061
716.1,0.0059
716.0,0.0057
715.9,0.0062
715.8,0.0061
715.7,0.0059
715.6,0.0051
715.5,0.0053
715.4,0.0059
715.3,0.0056
715.2,0.0055
715.1,0.0059
715.0,0.0059
714.9,0.0056
714.8,0.0058
714.7,0.0061
714.6,0.0061
714.5,0.0058
714.4,0.0059
714.3,0.0059
714.2,0.0057
714.1,0.0060
714.0,0.0057
713.9,0.0056
713.8,0.0062
713.7,0.0056
713.6,0.0059
713.5,0.0059
713.4,0.0062
713.3,0.0061
713.2,0.0058
713.1,0.0064
713.0,0.0057
712.9,0.0061
712.8,0.0057
712.7,0.0058
712.6,0.0058
712.5,0.0058
712.4,0.0064
712.3,0.0062
712.2,0.0062
712.1,0.0059
712.0,0.0063
711.9,0.0060
711.8,0.0062
711.7,0.0059
711.6,0.0056
711.5,0.0062
711.4,0.0061
711.3,0.0060
711.2,0.0067
711.1,0.0065
711.0,0.0062
710.9,0.0065
710.8,0.0061
710.7,0.0063
710.6,0.0065
710.5,0.0061
710.4,0.0063
710.3,0.0063
710.2,0.0065
710.1,0.0063
710.0,0.0063
709.9,0.0061
709.8,0.0059
709.7,0.0063
709.6,0.0065
709.5,0.0061
709.4,0.0061
709.3,0.0072
709.2,0.0063
709.1,0.0063
709.0,0.0064
708.9,0.0062
708.8,0.0060
708.7,0.0064
708.6,0.0060
708.5,0.0060
708.4,0.0061
708.3,0.0064
708.2,0.0062
708.1,0.0063
708.0,0.0059
707.9,0.0058
707.8,0.0058
707.7,0.0062
707.6,0.0064
707.5,0.0067
707.4,0.0068
707.3,0.0062
707.2,0.0063
707.1,0.0057
707.0,0.0066
706.9,0.0060
706.8,0.0055
706.7,0.0069
706.6,0.0063
706.5,0.0061
706.4,0.0066
706.3,0.0049
706.2,0.0061
706.1,0.0062
706.0,0.0065
705.9,0.0064
705.8,0.0058
705.7,0.0059
705.6,0.0068
705.5,0.0068
705.4,0.0060
705.3,0.0065
705.2,0.0067
705.1,0.0062
705.0,0.0062
704.9,0.0063
704.8,0.0067
704.7,0.0060
704.6,0.0063
704.5,0.0062
704.4,0.0068
704.3,0.0067
704.2,0.0061
704.1,0.0063
704.0,0.0062
703.9,0.0057
703.8,0.0063
703.7,0.0059
703.6,0.0065
703.5,0.0066
703.4,0.0062
703.3,0.0062
703.2,0.0061
703.1,0.0066
703.0,0.0066
702.9,0.0063
702.8,0.0059
702.7,0.0066
702.6,0.0065
702.5,0.0066
702.4,0.0067
702.3,0.0065
702.2,0.0067
702.1,0.0061
702.0,0.0064
701.9,0.0064
701.8,0.0061
701.7,0.0064
701.6,0.0071
701.5,0.0069
701.4,0.0067
701.3,0.0066
701.2,0.0064
701.1,0.0064
701.0,0.0066
700.9,0.0068
700.8,0.0066
700.7,0.0064
700.6,0.0069
700.5,0.0070
700.4,0.0062
700.3,0.0067
700.2,0.0069
700.1,0.0064
700.0,0.0067
699.9,0.0067
699.8,0.0064
699.7,0.0064
699.6,0.0065
699.5,0.0068
699.4,0.0069
699.3,0.0064
699.2,0.0065
699.1,0.0070
699.0,0.0064
698.9,0.0063
698.8,0.0066
698.7,0.0068
698.6,0.0070
698.5,0.0066
698.4,0.0062
698.3,0.0062
698.2,0.0063
698.1,0.0063
698.0,0.0069
697.9,0.0067
697.8,0.0063
697.7,0.0069
697.6,0.0068
697.5,0.0068
697.4,0.0072
697.3,0.0073
697.2,0.0068
697.1,0.0066
697.0,0.0066
696.9,0.0064
696.8,0.0070
696.7,0.0071
696.6,0.0065
696.5,0.0068
696.4,0.0063
696.3,0.0060
696.2,0.0060
696.1,0.0062
696.0,0.0070
695.9,0.0069
695.8,0.0065
695.7,0.0066
695.6,0.0069
695.5,0.0068
695.4,0.0068
695.3,0.0067
695.2,0.0068
695.1,0.0068
695.0,0.0067
694.9,0.0064
694.8,0.0063
694.7,0.0069
694.6,0.0069
694.5,0.0067
694.4,0.0069
694.3,0.0072
694.2,0.0066
694.1,0.0063
694.0,0.0070
693.9,0.0071
693.8,0.0069
693.7,0.0068
693.6,0.0069
693.5,0.0069
693.4,0.0067
693.3,0.0070
693.2,0.0071
693.1,0.0069
693.0,0.0069
692.9,0.0071
692.8,0.0066
692.7,0.0067
692.6,0.0068
692.5,0.0071
692.4,0.0072
692.3,0.0065
692.2,0.0069
692.1,0.0069
692.0,0.0069
691.9,0.0069
691.8,0.0067
691.7,0.0066
691.6,0.0067
691.5,0.0071
691.4,0.0070
691.3,0.0068
691.2,0.0070
691.1,0.0070
691.0,0.0068
690.9,0.0066
690.8,0.0067
690.7,0.0071
690.6,0.0070
690.5,0.0073
690.4,0.0074
690.3,0.0073
690.2,0.0076
690.1,0.0075
690.0,0.0073
689.9,0.0069
689.8,0.0071
689.7,0.0070
689.6,0.0068
689.5,0.0066
689.4,0.0076
689.3,0.0078
689.2,0.0072
689.1,0.0065
689.0,0.0070
688.9,0.0074
688.8,0.0073
688.7,0.0076
688.6,0.0072
688.5,0.0074
688.4,0.0075
688.3,0.0072
688.2,0.0077
688.1,0.0074
688.0,0.0068
687.9,0.0067
687.8,0.0064
687.7,0.0072
687.6,0.0075
687.5,0.0074
687.4,0.0071
687.3,0.0071
687.2,0.0071
687.1,0.0071
687.0,0.0064
686.9,0.0072
686.8,0.0069
686.7,0.0072
686.6,0.0069
686.5,0.0069
686.4,0.0071
686.3,0.0081
686.2,0.0075
686.1,0.0070
686.0,0.0077
685.9,0.0073
685.8,0.0073
685.7,0.0073
685.6,0.0073
685.5,0.0078
685.4,0.0077
685.3,0.0076
685.2,0.0071
685.1,0.0073
685.0,0.0075
684.9,0.0073
684.8,0.0075
684.7,0.0080
684.6,0.0074
684.5,0.0075
684.4,0.0077
684.3,0.0079
684.2,0.0080
684.1,0.0071
684.0,0.0072
683.9,0.0077
683.8,0.0073
683.7,0.0076
683.6,0.0079
683.5,0.0078
683.4,0.0073
683.3,0.0072
683.2,0.0078
683.1,0.0077
683.0,0.0084
682.9,0.0076
682.8,0.0077
682.7,0.0070
682.6,0.0072
682.5,0.0078
682.4,0.0076
682.3,0.0075
682.2,0.0076
682.1,0.0077
682.0,0.0080
681.9,0.0076
681.8,0.0075
681.7,0.0081
681.6,0.0076
681.5,0.0076
681.4,0.0073
681.3,0.0074
681.2,0.0080
681.1,0.0075
681.0,0.0077
680.9,0.0079
680.8,0.0075
680.7,0.0074
680.6,0.0067
680.5,0.0077
680.4,0.0081
680.3,0.0082
680.2,0.0079
680.1,0.0079
680.0,0.0076
679.9,0.0079
679.8,0.0072
679.7,0.0078
679.6,0.0080
679.5,0.0079
679.4,0.0080
679.3,0.0077
679.2,0.0077
679.1,0.0082
679.0,0.0073
678.9,0.0078
678.8,0.0078
678.7,0.0080
678.6,0.0076
678.5,0.0084
678.4,0.0083
678.3,0.0078
678.2,0.0072
678.1,0.0079
678.0,0.0079
677.9,0.0074
677.8,0.0076
677.7,0.0077
677.6,0.0081
677.5,0.0079
677.4,0.0084
677.3,0.0086
677.2,0.0082
677.1,0.0080
677.0,0.0084
676.9,0.0079
676.8,0.0081
676.7,0.0079
676.6,0.0080
676.5,0.0088
676.4,0.0081
676.3,0.0080
676.2,0.0082
676.1,0.0084
676.0,0.0085
675.9,0.0083
675.8,0.0081
675.7,0.0076
675.6,0.0081
675.5,0.0083
675.4,0.0082
675.3,0.0081
675.2,0.0084
675.1,0.0080
675.0,0.0081
674.9,0.0082
674.8,0.0082
674.7,0.0085
674.6,0.0083
674.5,0.0083
674.4,0.0082
674.3,0.0082
674.2,0.0084
674.1,0.0086
674.0,0.0085
673.9,0.0084
673.8,0.0081
673.7,0.0081
673.6,0.0082
673.5,0.0082
673.4,0.0085
673.3,0.0084
673.2,0.0080
673.1,0.0083
673.0,0.0083
672.9,0.0082
672.8,0.0084
672.7,0.0083
672.6,0.0084
672.5,0.0085
672.4,0.0087
672.3,0.0086
672.2,0.0089
672.1,0.0086
672.0,0.0085
671.9,0.0088
671.8,0.0087
671.7,0.0083
671.6,0.0082
671.5,0.0087
671.4,0.0088
671.3,0.0087
671.2,0.0085
671.1,0.0085
671.0,0.0086
670.9,0.0084
670.8,0.0086
670.7,0.0089
670.6,0.0089
670.5,0.0087
670.4,0.0085
670.3,0.0084
670.2,0.0089
670.1,0.0089
670.0,0.0089
669.9,0.0090
669.8,0.0088
669.7,0.0083
669.6,0.0082
669.5,0.0083
669.4,0.0084
669.3,0.0083
669.2,0.0081
669.1,0.0085
669.0,0.0090
668.9,0.0092
668.8,0.0092
668.7,0.0090
668.6,0.0087
668.5,0.0090
668.4,0.0088
668.3,0.0088
668.2,0.0087
668.1,0.0091
668.0,0.0088
667.9,0.0089
667.8,0.0088
667.7,0.0085
667.6,0.0085
667.5,0.0086
667.4,0.0089
667.3,0.0088
667.2,0.0091
667.1,0.0086
667.0,0.0089
666.9,0.0086
666.8,0.0086
666.7,0.0089
666.6,0.0089
666.5,0.0087
666.4,0.0088
666.3,0.0091
666.2,0.0088
666.1,0.0088
666.0,0.0091
665.9,0.0087
665.8,0.0090
665.7,0.0090
665.6,0.0088
665.5,0.0088
665.4,0.0089
665.3,0.0089
665.2,0.0085
665.1,0.0084
665.0,0.0091
664.9,0.0088
664.8,0.0087
664.7,0.0090
664.6,0.0085
664.5,0.0084
664.4,0.0089
664.3,0.0086
664.2,0.0090
664.1,0.0091
664.0,0.0088
663.9,0.0088
663.8,0.0086
663.7,0.0087
663.6,0.0087
663.5,0.0088
663.4,0.0090
663.3,0.0091
663.2,0.0090
663.1,0.0085
663.0,0.0085
662.9,0.0087
662.8,0.0083
662.7,0.0084
662.6,0.0084
662.5,0.0093
662.4,0.0086
662.3,0.0090
662.2,0.0085
662.1,0.0085
662.0,0.0084
661.9,0.0085
661.8,0.0085
661.7,0.0086
661.6,0.0084
661.5,0.0086
661.4,0.0087
661.3,0.0083
661.2,0.0095
661.1,0.0091
661.0,0.0093
660.9,0.0085
660.8,0.0082
660.7,0.0082
660.6,0.0084
660.5,0.0085
660.4,0.0088
660.3,0.0088
660.2,0.0084
660.1,0.0085
660.0,0.0088
659.9,0.0087
659.8,0.0092
659.7,0.0092
659.6,0.0086
659.5,0.0080
659.4,0.0084
659.3,0.0087
659.2,0.0089
659.1,0.0088
659.0,0.0085
658.9,0.0082
658.8,0.0085
658.7,0.0081
658.6,0.0087
658.5,0.0089
658.4,0.0087
658.3,0.0083
658.2,0.0085
658.1,0.0088
658.0,0.0087
657.9,0.0087
657.8,0.0087
657.7,0.0083
657.6,0.0080
657.5,0.0082
657.4,0.0084
657.3,0.0086
657.2,0.0084
657.1,0.0081
657.0,0.0080
656.9,0.0081
656.8,0.0083
656.7,0.0084
656.6,0.0088
656.5,0.0084
656.4,0.0083
656.3,0.0086
656.2,0.0083
656.1,0.0081
656.0,0.0081
655.9,0.0077
655.8,0.0082
655.7,0.0080
655.6,0.0086
655.5,0.0088
655.4,0.0083
655.3,0.0082
655.2,0.0079
655.1,0.0078
655.0,0.0082
654.9,0.0080
654.8,0.0087
654.7,0.0077
654.6,0.0081
654.5,0.0082
654.4,0.0085
654.3,0.0084
654.2,0.0084
654.1,0.0082
654.0,0.0085
653.9,0.0083
653.8,0.0082
653.7,0.0080
653.6,0.0077
653.5,0.0080
653.4,0.0083
653.3,0.0080
653.2,0.0082
653.1,0.0081
653.0,0.0082
652.9,0.0083
652.8,0.0073
652.7,0.0077
652.6,0.0082
652.5,0.0077
652.4,0.0075
652.3,0.0081
652.2,0.0079
652.1,0.0079
652.0,0.0079
651.9,0.0077
651.8,0.0078
651.7,0.0077
651.6,0.0077
651.5,0.0079
651.4,0.0082
651.3,0.0084
651.2,0.0084
651.1,0.0081
651.0,0.0082
650.9,0.0081
650.8,0.0080
650.7,0.0078
650.6,0.0078
650.5,0.0082
650.4,0.0083
650.3,0.0078
650.2,0.0079
650.1,0.0082
650.0,0.0082
649.9,0.0078
649.8,0.0079
649.7,0.0081
649.6,0.0079
649.5,0.0076
649.4,0.0074
649.3,0.0078
649.2,0.0077
649.1,0.0075
649.0,0.0074
648.9,0.0074
648.8,0.0077
648.7,0.0078
648.6,0.0079
648.5,0.0077
648.4,0.0077
648.3,0.0078
648.2,0.0077
648.1,0.0076
648.0,0.0078
647.9,0.0079
647.8,0.0074
647.7,0.0075
647.6,0.0074
647.5,0.0075
647.4,0.0077
647.3,0.0073
647.2,0.0074
647.1,0.0076
647.0,0.0076
646.9,0.0075
646.8,0.0077
646.7,0.0076
646.6,0.0073
646.5,0.0075
646.4,0.0080
646.3,0.0078
646.2,0.0074
646.1,0.0077
646.0,0.0076
645.9,0.0076
645.8,0.0077
645.7,0.0075
645.6,0.0074
645.5,0.0078
645.4,0.0079
645.3,0.0079
645.2,0.0080
645.1,0.0077
645.0,0.0076
644.9,0.0077
644.8,0.0081
644.7,0.0076
644.6,0.0075
644.5,0.0076
644.4,0.0078
644.3,0.0076
644.2,0.0074
644.1,0.0073
644.0,0.0076
643.9,0.0074
643.8,0.0073
643.7,0.0072
643.6,0.0074
643.5,0.0075
643.4,0.0073
643.3,0.0075
643.2,0.0074
643.1,0.0076
643.0,0.0072
642.9,0.0072
642.8,0.0075
642.7,0.0077
642.6,0.0075
642.5,0.0077
642.4,0.0072
642.3,0.0073
642.2,0.0074
642.1,0.0072
642.0,0.0074
641.9,0.0077
641.8,0.0080
641.7,0.0078
641.6,0.0075
641.5,0.0076
641.4,0.0074
641.3,0.0076
641.2,0.0080
641.1,0.0076
641.0,0.0075
640.9,0.0080
640.8,0.0078
640.7,0.0072
640.6,0.0078
640.5,0.0078
640.4,0.0078
640.3,0.0079
640.2,0.0076
640.1,0.0072
640.0,0.0075
639.9,0.0069
639.8,0.0078
639.7,0.0072
639.6,0.0073
639.5,0.0075
639.4,0.0077
639.3,0.0075
639.2,0.0073
639.1,0.0074
639.0,0.0074
638.9,0.0075
638.8,0.0080
638.7,0.0073
638.6,0.0075
638.5,0.0070
638.4,0.0074
638.3,0.0076
638.2,0.0073
638.1,0.0078
638.0,0.0077
637.9,0.0074
637.8,0.0077
637.7,0.0076
637.6,0.0068
637.5,0.0080
637.4,0.0079
637.3,0.0076
637.2,0.0080
637.1,0.0077
637.0,0.0074
636.9,0.0074
636.8,0.0079
636.7,0.0080
636.6,0.0077
636.5,0.0081
636.4,0.0075
636.3,0.0075
636.2,0.0075
636.1,0.0078
636.0,0.0072
635.9,0.0071
635.8,0.0074
635.7,0.0076
635.6,0.0072
635.5,0.0075
635.4,0.0078
635.3,0.0072
635.2,0.0078
635.1,0.0073
635.0,0.0077
634.9,0.0075
634.8,0.0072
634.7,0.0074
634.6,0.0075
634.5,0.0075
634.4,0.0075
634.3,0.0080
634.2,0.0074
634.1,0.0073
634.0,0.0073
633.9,0.0074
633.8,0.0075
633.7,0.0076
633.6,0.0077
633.5,0.0081
633.4,0.0075
633.3,0.0079
633.2,0.0080
633.1,0.0073
633.0,0.0077
632.9,0.0074
632.8,0.0076
632.7,0.0072
632.6,0.0071
632.5,0.0071
632.4,0.0075
632.3,0.0075
632.2,0.0070
632.1,0.0075
632.0,0.0072
631.9,0.0079
631.8,0.0075
631.7,0.0072
631.6,0.0079
631.5,0.0078
631.4,0.0077
631.3,0.0076
631.2,0.0074
631.1,0.0075
631.0,0.0075
630.9,0.0076
630.8,0.0073
630.7,0.0073
630.6,0.0073
630.5,0.0070
630.4,0.0075
630.3,0.0074
630.2,0.0069
630.1,0.0077
630.0,0.0076
629.9,0.0074
629.8,0.0074
629.7,0.0077
629.6,0.0076
629.5,0.0080
629.4,0.0079
629.3,0.0073
629.2,0.0077
629.1,0.0079
629.0,0.0078
628.9,0.0079
628.8,0.0076
628.7,0.0078
628.6,0.0074
628.5,0.0072
628.4,0.0075
628.3,0.0073
628.2,0.0074
628.1,0.0075
628.0,0.0076
627.9,0.0077
627.8,0.0077
627.7,0.0073
627.6,0.0073
627.5,0.0076
627.4,0.0075
627.3,0.0076
627.2,0.0077
627.1,0.0076
627.0,0.0075
626.9,0.0075
626.8,0.0076
626.7,0.0076
626.6,0.0073
626.5,0.0072
626.4,0.0072
626.3,0.0076
626.2,0.0076
626.1,0.0073
626.0,0.0073
625.9,0.0074
625.8,0.0074
625.7,0.0072
625.6,0.0072
625.5,0.0074
625.4,0.0073
625.3,0.0071
625.2,0.0073
625.1,0.0074
625.0,0.0070
624.9,0.0072
624.8,0.0073
624.7,0.0071
624.6,0.0073
624.5,0.0076
624.4,0.0077
624.3,0.0077
624.2,0.0077
624.1,0.0077
624.0,0.0078
623.9,0.0077
623.8,0.0074
623.7,0.0073
623.6,0.0073
623.5,0.0075
623.4,0.0076
623.3,0.0075
623.2,0.0074
623.1,0.0077
623.0,0.0077
622.9,0.0073
622.8,0.0074
622.7,0.0072
622.6,0.0070
622.5,0.0072
622.4,0.0075
622.3,0.0075
622.2,0.0075
622.1,0.0074
622.0,0.0074
621.9,0.0075
621.8,0.0078
621.7,0.0076
621.6,0.0075
621.5,0.0075
621.4,0.0075
621.3,0.0078
621.2,0.0076
621.1,0.0077
621.0,0.0078
620.9,0.0081
620.8,0.0080
620.7,0.0077
620.6,0.0075
620.5,0.0077
620.4,0.0077
620.3,0.0076
620.2,0.0075
620.1,0.0076
620.0,0.0075
619.9,0.0073
619.8,0.0072
619.7,0.0074
619.6,0.0075
619.5,0.0074
619.4,0.0074
619.3,0.0077
619.2,0.0077
619.1,0.0073
619.0,0.0071
618.9,0.0073
618.8,0.0071
618.7,0.0075
618.6,0.0075
618.5,0.0076
618.4,0.0073
618.3,0.0071
618.2,0.0066
618.1,0.0069
618.0,0.0071
617.9,0.0073
617.8,0.0073
617.7,0.0075
617.6,0.0076
617.5,0.0075
617.4,0.0074
617.3,0.0075
617.2,0.0071
617.1,0.0074
617.0,0.0075
616.9,0.0071
616.8,0.0069
616.7,0.0073
616.6,0.0073
616.5,0.0071
616.4,0.0072
616.3,0.0071
616.2,0.0075
616.1,0.0077
616.0,0.0071
615.9,0.0069
615.8,0.0070
615.7,0.0074
615.6,0.0074
615.5,0.0075
615.4,0.0073
615.3,0.0073
615.2,0.0072
615.1,0.0074
615.0,0.0072
614.9,0.0072
614.8,0.0075
614.7,0.0073
614.6,0.0071
614.5,0.0069
614.4,0.0076
614.3,0.0072
614.2,0.0076
614.1,0.0071
614.0,0.0073
613.9,0.0073
613.8,0.0069
613.7,0.0073
613.6,0.0068
613.5,0.0068
613.4,0.0075
613.3,0.0074
613.2,0.0075
613.1,0.0068
613.0,0.0068
612.9,0.0077
612.8,0.0072
612.7,0.0075
612.6,0.0067
612.5,0.0074
612.4,0.0068
612.3,0.0070
612.2,0.0074
612.1,0.0069
612.0,0.0071
611.9,0.0068
611.8,0.0068
611.7,0.0070
611.6,0.0068
611.5,0.0068
611.4,0.0070
611.3,0.0067
611.2,0.0069
611.1,0.0071
611.0,0.0070
610.9,0.0072
610.8,0.0071
610.7,0.0068
610.6,0.0072
610.5,0.0070
610.4,0.0067
610.3,0.0067
610.2,0.0069
610.1,0.0068
610.0,0.0072
609.9,0.0065
609.8,0.0066
609.7,0.0069
609.6,0.0067
609.5,0.0065
609.4,0.0062
609.3,0.0065
609.2,0.0068
609.1,0.0069
609.0,0.0068
608.9,0.0066
608.8,0.0068
608.7,0.0066
608.6,0.0066
608.5,0.0065
608.4,0.0065
608.3,0.0068
608.2,0.0067
608.1,0.0064
608.0,0.0064
607.9,0.0063
607.8,0.0063
607.7,0.0060
607.6,0.0063
607.5,0.0065
607.4,0.0065
607.3,0.0061
607.2,0.0062
607.1,0.0064
607.0,0.0066
606.9,0.0064
606.8,0.0064
606.7,0.0065
606.6,0.0061
606.5,0.0065
606.4,0.0065
606.3,0.0065
606.2,0.0059
606.1,0.0063
606.0,0.0063
605.9,0.0060
605.8,0.0062
605.7,0.0066
605.6,0.0063
605.5,0.0061
605.4,0.0065
605.3,0.0063
605.2,0.0063
605.1,0.0059
605.0,0.0063
604.9,0.0064
604.8,0.0063
604.7,0.0063
604.6,0.0064
604.5,0.0065
604.4,0.0062
604.3,0.0058
604.2,0.0059
604.1,0.0059
604.0,0.0060
603.9,0.0062
603.8,0.0062
603.7,0.0062
603.6,0.0060
603.5,0.0058
603.4,0.0058
603.3,0.0057
603.2,0.0059
603.1,0.0059
603.0,0.0059
602.9,0.0059
602.8,0.0057
602.7,0.0059
602.6,0.0061
602.5,0.0060
602.4,0.0056
602.3,0.0056
602.2,0.0058
602.1,0.0057
602.0,0.0058
601.9,0.0058
601.8,0.0060
601.7,0.0058
601.6,0.0055
601.5,0.0056
601.4,0.0056
601.3,0.0056
601.2,0.0055
601.1,0.0055
601.0,0.0056
600.9,0.0058
600.8,0.0059
600.7,0.0058
600.6,0.0054
600.5,0.0054
600.4,0.0054
600.3,0.0055
600.2,0.0057
600.1,0.0057
600.0,0.0057
599.9,0.0058
599.8,0.0053
599.7,0.0053
599.6,0.0055
599.5,0.0051
599.4,0.0050
599.3,0.0052
599.2,0.0053
599.1,0.0053
599.0,0.0051
598.9,0.0051
598.8,0.0052
598.7,0.0052
598.6,0.0055
598.5,0.0055
598.4,0.0053
598.3,0.0051
598.2,0.0052
598.1,0.0052
598.0,0.0051
597.9,0.0051
597.8,0.0050
597.7,0.0050
597.6,0.0052
597.5,0.0053
597.4,0.0049
597.3,0.0047
597.2,0.0048
597.1,0.0047
597.0,0.0049
596.9,0.0050
596.8,0.0049
596.7,0.0050
596.6,0.0048
596.5,0.0045
596.4,0.0047
596.3,0.0047
596.2,0.0049
596.1,0.0050
596.0,0.0049
595.9,0.0050
595.8,0.0049
595.7,0.0047
595.6,0.0048
595.5,0.0046
595.4,0.0049
595.3,0.0048
595.2,0.0049
595.1,0.0049
595.0,0.0048
594.9,0.0044
594.8,0.0045
594.7,0.0049
594.6,0.0045
594.5,0.0046
594.4,0.0047
594.3,0.0048
594.2,0.0045
594.1,0.0046
594.0,0.0043
593.9,0.0044
593.8,0.0047
593.7,0.0046
593.6,0.0044
593.5,0.0043
593.4,0.0041
593.3,0.0043
593.2,0.0044
593.1,0.0039
593.0,0.0040
592.9,0.0040
592.8,0.0039
592.7,0.0044
592.6,0.0042
592.5,0.0043
592.4,0.0044
592.3,0.0044
592.2,0.0041
592.1,0.0048
592.0,0.0044
591.9,0.0042
591.8,0.0036
591.7,0.0044
591.6,0.0040
591.5,0.0043
591.4,0.0039
591.3,0.0040
591.2,0.0040
591.1,0.0040
591.0,0.0036
590.9,0.0040
590.8,0.0041
590.7,0.0044
590.6,0.0039
590.5,0.0037
590.4,0.0042
590.3,0.0039
590.2,0.0043
590.1,0.0040
590.0,0.0043
589.9,0.0035
589.8,0.0036
589.7,0.0038
589.6,0.0040
589.5,0.0042
589.4,0.0039
589.3,0.0043
589.2,0.0036
589.1,0.0037
589.0,0.0035
588.9,0.0035
588.8,0.0039
588.7,0.0041
588.6,0.0039
588.5,0.0037
588.4,0.0037
588.3,0.0039
588.2,0.0036
588.1,0.0034
588.0,0.0040
587.9,0.0035
587.8,0.0038
587.7,0.0036
587.6,0.0036
587.5,0.0038
587.4,0.0036
587.3,0.0036
587.2,0.0037
587.1,0.0039
587.0,0.0037
586.9,0.0039
586.8,0.0038
586.7,0.0038
586.6,0.0038
586.5,0.0037
586.4,0.0035
586.3,0.0032
586.2,0.0036
586.1,0.0035
586.0,0.0035
585.9,0.0034
585.8,0.0031
585.7,0.0030
585.6,0.0033
585.5,0.0033
585.4,0.0032
585.3,0.0031
585.2,0.0031
585.1,0.0034
585.0,0.0032
584.9,0.0033
584.8,0.0032
584.7,0.0033
584.6,0.0031
584.5,0.0033
584.4,0.0036
584.3,0.0034
584.2,0.0028
584.1,0.0030
584.0,0.0030
583.9,0.0030
583.8,0.0030
583.7,0.0028
583.6,0.0031
583.5,0.0033
583.4,0.0031
583.3,0.0029
583.2,0.0028
583.1,0.0030
583.0,0.0031
582.9,0.0028
582.8,0.0028
582.7,0.0027
582.6,0.0029
582.5,0.0029
582.4,0.0028
582.3,0.0026
582.2,0.0025
582.1,0.0030
582.0,0.0032
581.9,0.0032
581.8,0.0028
581.7,0.0026
581.6,0.0025
581.5,0.0029
581.4,0.0028
581.3,0.0026
581.2,0.0023
581.1,0.0021
581.0,0.0026
580.9,0.0030
580.8,0.0028
580.7,0.0029
580.6,0.0026
580.5,0.0026
580.4,0.0026
580.3,0.0024
580.2,0.0024
580.1,0.0023
580.0,0.0025
