Created as New Dataset,
nm,A
800.0,0.0067
799.9,0.0064
799.8,0.0074
799.7,0.0065
799.6,0.0066
799.5,0.0066
799.4,0.0069
799.3,0.0078
799.2,0.0067
799.1,0.0061
799.0,0.0076
798.9,0.0049
798.8,0.0071
798.7,0.0081
798.6,0.0063
798.5,0.0062
798.4,0.0074
798.3,0.0076
798.2,0.0073
798.1,0.0065
798.0,0.0074
797.9,0.0061
797.8,0.0071
797.7,0.0058
797.6,0.0064
797.5,0.0072
797.4,0.0070
797.3,0.0073
797.2,0.0081
797.1,0.0074
797.0,0.0068
796.9,0.0054
796.8,0.0062
796.7,0.0065
796.6,0.0079
796.5,0.0076
796.4,0.0086
796.3,0.0066
796.2,0.0068
796.1,0.0078
796.0,0.0078
795.9,0.0076
795.8,0.0073
795.7,0.0077
795.6,0.0078
795.5,0.0061
795.4,0.0058
795.3,0.0069
795.2,0.0072
795.1,0.0077
795.0,0.0076
794.9,0.0077
794.8,0.0069
794.7,0.0075
794.6,0.0078
794.5,0.0079
794.4,0.0070
794.3,0.0075
794.2,0.0079
794.1,0.0071
794.0,0.0076
793.9,0.0079
793.8,0.0073
793.7,0.0068
793.6,0.0073
793.5,0.0066
793.4,0.0063
793.3,0.0067
793.2,0.0074
793.1,0.0077
793.0,0.0069
792.9,0.0077
792.8,0.0083
792.7,0.0075
792.6,0.0066
792.5,0.0068
792.4,0.0070
792.3,0.0065
792.2,0.0074
792.1,0.0077
792.0,0.0072
791.9,0.0072
791.8,0.0066
791.7,0.0065
791.6,0.0074
791.5,0.0070
791.4,0.0070
791.3,0.0072
791.2,0.0078
791.1,0.0073
791.0,0.0073
790.9,0.0065
790.8,0.0067
790.7,0.0078
790.6,0.0080
790.5,0.0074
790.4,0.0068
790.3,0.0076
790.2,0.0081
790.1,0.0076
790.0,0.0077
789.9,0.0074
789.8,0.0072
789.7,0.0068
789.6,0.0061
789.5,0.0065
789.4,0.0074
789.3,0.0073
789.2,0.0073
789.1,0.0077
789.0,0.0081
788.9,0.0070
788.8,0.0062
788.7,0.0070
788.6,0.0074
788.5,0.0072
788.4,0.0072
788.3,0.0078
788.2,0.0075
788.1,0.0065
788.0,0.0071
787.9,0.0078
787.8,0.0079
787.7,0.0076
787.6,0.0073
787.5,0.0078
787.4,0.0076
787.3,0.0072
787.2,0.0071
787.1,0.0072
787.0,0.0076
786.9,0.0072
786.8,0.0071
786.7,0.0072
786.6,0.0068
786.5,0.0069
786.4,0.0079
786.3,0.0084
786.2,0.0074
786.1,0.0067
786.0,0.0071
785.9,0.0076
785.8,0.0069
785.7,0.0061
785.6,0.0066
785.5,0.0074
785.4,0.0074
785.3,0.0075
785.2,0.0069
785.1,0.0073
785.0,0.0068
784.9,0.0067
784.8,0.0071
784.7,0.0059
784.6,0.0071
784.5,0.0074
784.4,0.0076
784.3,0.0074
784.2,0.0069
784.1,0.0076
784.0,0.0083
783.9,0.0081
783.8,0.0073
783.7,0.0071
783.6,0.0068
783.5,0.0062
783.4,0.0064
783.3,0.0069
783.2,0.0081
783.1,0.0074
783.0,0.0079
782.9,0.0067
782.8,0.0066
782.7,0.0067
782.6,0.0074
782.5,0.0077
782.4,0.0073
782.3,0.0075
782.2,0.0074
782.1,0.0069
782.0,0.0075
781.9,0.0079
781.8,0.0088
781.7,0.0070
781.6,0.0065
781.5,0.0064
781.4,0.0073
781.3,0.0078
781.2,0.0069
781.1,0.0068
781.0,0.0069
780.9,0.0073
780.8,0.0071
780.7,0.0073
780.6,0.0074
780.5,0.0079
780.4,0.0069
780.3,0.0068
780.2,0.0065
780.1,0.0077
780.0,0.0067
779.9,0.0080
779.8,0.0081
779.7,0.0068
779.6,0.0066
779.5,0.0078
779.4,0.0074
779.3,0.0080
779.2,0.0075
779.1,0.0076
779.0,0.0073
778.9,0.0074
778.8,0.0073
778.7,0.0074
778.6,0.0070
778.5,0.0075
778.4,0.0076
778.3,0.0076
778.2,0.0070
778.1,0.0073
778.0,0.0073
777.9,0.0078
777.8,0.0071
777.7,0.0069
777.6,0.0081
777.5,0.0075
777.4,0.0088
777.3,0.0077
777.2,0.0072
777.1,0.0082
777.0,0.0084
776.9,0.0082
776.8,0.0079
776.7,0.0077
776.6,0.0083
776.5,0.0073
776.4,0.0071
776.3,0.0068
776.2,0.0075
776.1,0.0072
776.0,0.0075
775.9,0.0068
775.8,0.0084
775.7,0.0082
775.6,0.0068
775.5,0.0072
775.4,0.0079
775.3,0.0075
775.2,0.0081
775.1,0.0072
775.0,0.0072
774.9,0.0080
774.8,0.0068
774.7,0.0072
774.6,0.0090
774.5,0.0081
774.4,0.0069
774.3,0.0080
774.2,0.0074
774.1,0.0083
774.0,0.0073
773.9,0.0067
773.8,0.0079
773.7,0.0078
773.6,0.0074
773.5,0.0068
773.4,0.0076
773.3,0.0076
773.2,0.0079
773.1,0.0075
773.0,0.0077
772.9,0.0072
772.8,0.0072
772.7,0.0070
772.6,0.0078
772.5,0.0075
772.4,0.0073
772.3,0.0072
772.2,0.0071
772.1,0.0075
772.0,0.0081
771.9,0.0069
771.8,0.0081
771.7,0.0076
771.6,0.0076
771.5,0.0080
771.4,0.0069
771.3,0.0076
771.2,0.0073
771.1,0.0081
771.0,0.0076
770.9,0.0077
770.8,0.0074
770.7,0.0074
770.6,0.0080
770.5,0.0077
770.4,0.0069
770.3,0.0073
770.2,0.0076
770.1,0.0084
770.0,0.0085
769.9,0.0077
769.8,0.0073
769.7,0.0074
769.6,0.0070
769.5,0.0079
769.4,0.0081
769.3,0.0079
769.2,0.0077
769.1,0.0079
769.0,0.0083
768.9,0.0081
768.8,0.0082
768.7,0.0077
768.6,0.0075
768.5,0.0075
768.4,0.0078
768.3,0.0075
768.2,0.0070
768.1,0.0075
768.0,0.0075
767.9,0.0071
767.8,0.0067
767.7,0.0073
767.6,0.0071
767.5,0.0074
767.4,0.0087
767.3,0.0081
767.2,0.0076
767.1,0.0073
767.0,0.0070
766.9,0.0073
766.8,0.0077
766.7,0.0078
766.6,0.0079
766.5,0.0078
766.4,0.0078
766.3,0.0081
766.2,0.0073
766.1,0.0074
766.0,0.0077
765.9,0.0076
765.8,0.0074
765.7,0.0070
765.6,0.0071
765.5,0.0076
765.4,0.0082
765.3,0.0087
765.2,0.0087
765.1,0.0080
765.0,0.0078
764.9,0.0079
764.8,0.0080
764.7,0.0084
764.6,0.0081
764.5,0.0077
764.4,0.0079
764.3,0.0079
764.2,0.0077
764.1,0.0077
764.0,0.0076
763.9,0.0069
763.8,0.0073
763.7,0.0076
763.6,0.0070
763.5,0.0074
763.4,0.0082
763.3,0.0085
763.2,0.0086
763.1,0.0079
763.0,0.0078
762.9,0.0079
762.8,0.0085
762.7,0.0088
762.6,0.0082
762.5,0.0081
762.4,0.0084
762.3,0.0083
762.2,0.0080
762.1,0.0077
762.0,0.0083
761.9,0.0081
761.8,0.0078
761.7,0.0077
761.6,0.0080
761.5,0.0087
761.4,0.0082
761.3,0.0084
761.2,0.0081
761.1,0.0080
761.0,0.0085
760.9,0.0075
760.8,0.0083
760.7,0.0076
760.6,0.0072
760.5,0.0077
760.4,0.0074
760.3,0.0075
760.2,0.0075
760.1,0.0076
760.0,0.0078
759.9,0.0077
759.8,0.0078
759.7,0.0076
759.6,0.0078
759.5,0.0081
759.4,0.0074
759.3,0.0081
759.2,0.0079
759.1,0.0072
759.0,0.0074
758.9,0.0078
758.8,0.0077
758.7,0.0085
758.6,0.0081
758.5,0.0090
758.4,0.0085
758.3,0.0084
758.2,0.0084
758.1,0.0085
758.0,0.0083
757.9,0.0080
757.8,0.0087
757.7,0.0082
757.6,0.0080
757.5,0.0085
757.4,0.0079
757.3,0.0076
757.2,0.0087
757.1,0.0070
757.0,0.0087
756.9,0.0084
756.8,0.0081
756.7,0.0077
756.6,0.0086
756.5,0.0092
756.4,0.0077
756.3,0.0081
756.2,0.0083
756.1,0.0075
756.0,0.0082
755.9,0.0084
755.8,0.0080
755.7,0.0083
755.6,0.0079
755.5,0.0095
755.4,0.0078
755.3,0.0085
755.2,0.0082
755.1,0.0073
755.0,0.0081
754.9,0.0075
754.8,0.0084
754.7,0.0081
754.6,0.0095
754.5,0.0086
754.4,0.0079
754.3,0.0079
754.2,0.0089
754.1,0.0084
754.0,0.0085
753.9,0.0077
753.8,0.0080
753.7,0.0082
753.6,0.0085
753.5,0.0081
753.4,0.0081
753.3,0.0080
753.2,0.0084
753.1,0.0085
753.0,0.0084
752.9,0.0082
752.8,0.0085
752.7,0.0086
752.6,0.0083
752.5,0.0077
752.4,0.0089
752.3,0.0091
752.2,0.0084
752.1,0.0078
752.0,0.0074
751.9,0.0083
751.8,0.0076
751.7,0.0077
751.6,0.0082
751.5,0.0078
751.4,0.0085
751.3,0.0082
751.2,0.0083
751.1,0.0078
751.0,0.0088
750.9,0.0079
750.8,0.0077
750.7,0.0076
750.6,0.0086
750.5,0.0087
750.4,0.0083
750.3,0.0086
750.2,0.0076
750.1,0.0073
750.0,0.0079
749.9,0.0076
749.8,0.0085
749.7,0.0083
749.6,0.0085
749.5,0.0092
749.4,0.0086
749.3,0.0089
749.2,0.0087
749.1,0.0084
749.0,0.0082
748.9,0.0080
748.8,0.0080
748.7,0.0083
748.6,0.0084
748.5,0.0083
748.4,0.0077
748.3,0.0083
748.2,0.0079
748.1,0.0078
748.0,0.0080
747.9,0.0089
747.8,0.0096
747.7,0.0088
747.6,0.0091
747.5,0.0090
747.4,0.0088
747.3,0.0080
747.2,0.0084
747.1,0.0089
747.0,0.0084
746.9,0.0090
746.8,0.0084
746.7,0.0082
746.6,0.0086
746.5,0.0083
746.4,0.0080
746.3,0.0079
746.2,0.0079
746.1,0.0077
746.0,0.0082
745.9,0.0086
745.8,0.0083
745.7,0.0079
745.6,0.0086
745.5,0.0085
745.4,0.0085
745.3,0.0085
745.2,0.0083
745.1,0.0077
745.0,0.0085
744.9,0.0082
744.8,0.0077
744.7,0.0083
744.6,0.0084
744.5,0.0083
744.4,0.0082
744.3,0.0081
744.2,0.0086
744.1,0.0085
744.0,0.0082
743.9,0.0080
743.8,0.0081
743.7,0.0086
743.6,0.0082
743.5,0.0081
743.4,0.0080
743.3,0.0086
743.2,0.0090
743.1,0.0088
743.0,0.0083
742.9,0.0078
742.8,0.0078
742.7,0.0084
742.6,0.0084
742.5,0.0082
742.4,0.0078
742.3,0.0085
742.2,0.0093
742.1,0.0085
742.0,0.0084
741.9,0.0085
741.8,0.0082
741.7,0.0085
741.6,0.0086
741.5,0.0087
741.4,0.0088
741.3,0.0088
741.2,0.0089
741.1,0.0087
741.0,0.0087
740.9,0.0085
740.8,0.0085
740.7,0.0084
740.6,0.0085
740.5,0.0088
740.4,0.0083
740.3,0.0085
740.2,0.0089
740.1,0.0089
740.0,0.0086
739.9,0.0089
739.8,0.0090
739.7,0.0090
739.6,0.0089
739.5,0.0081
739.4,0.0082
739.3,0.0083
739.2,0.0081
739.1,0.0087
739.0,0.0086
738.9,0.0083
738.8,0.0090
738.7,0.0089
738.6,0.0083
738.5,0.0079
738.4,0.0081
738.3,0.0086
738.2,0.0087
738.1,0.0092
738.0,0.0087
737.9,0.0089
737.8,0.0083
737.7,0.0078
737.6,0.0082
737.5,0.0080
737.4,0.0082
737.3,0.0082
737.2,0.0079
737.1,0.0077
737.0,0.0083
736.9,0.0089
736.8,0.0089
736.7,0.0089
736.6,0.0091
736.5,0.0092
736.4,0.0095
736.3,0.0087
736.2,0.0088
736.1,0.0085
736.0,0.0086
735.9,0.0086
735.8,0.0086
735.7,0.0087
735.6,0.0090
735.5,0.0085
735.4,0.0086
735.3,0.0091
735.2,0.0087
735.1,0.0087
735.0,0.0091
734.9,0.0089
734.8,0.0090
734.7,0.0089
734.6,0.0089
734.5,0.0091
734.4,0.0096
734.3,0.0088
734.2,0.0093
734.1,0.0088
734.0,0.0083
733.9,0.0086
733.8,0.0083
733.7,0.0091
733.6,0.0090
733.5,0.0090
733.4,0.0092
733.3,0.0083
733.2,0.0085
733.1,0.0084
733.0,0.0087
732.9,0.0089
732.8,0.0090
732.7,0.0093
732.6,0.0090
732.5,0.0093
732.4,0.0088
732.3,0.0087
732.2,0.0090
732.1,0.0084
732.0,0.0090
731.9,0.0087
731.8,0.0094
731.7,0.0091
731.6,0.0088
731.5,0.0092
731.4,0.0088
731.3,0.0087
731.2,0.0091
731.1,0.0089
731.0,0.0084
730.9,0.0082
730.8,0.0090
730.7,0.0087
730.6,0.0086
730.5,0.0095
730.4,0.0102
730.3,0.0088
730.2,0.0087
730.1,0.0101
730.0,0.0091
729.9,0.0083
729.8,0.0091
729.7,0.0082
729.6,0.0097
729.5,0.0096
729.4,0.0086
729.3,0.0093
729.2,0.0085
729.1,0.0083
729.0,0.0092
728.9,0.0083
728.8,0.0088
728.7,0.0098
728.6,0.0094
728.5,0.0097
728.4,0.0095
728.3,0.0088
728.2,0.0087
728.1,0.0093
728.0,0.0090
727.9,0.0090
727.8,0.0087
727.7,0.0095
727.6,0.0093
727.5,0.0096
727.4,0.0089
727.3,0.0094
727.2,0.0096
727.1,0.0096
727.0,0.0086
726.9,0.0090
726.8,0.0085
726.7,0.0092
726.6,0.0092
726.5,0.0081
726.4,0.0092
726.3,0.0093
726.2,0.0088
726.1,0.0095
726.0,0.0083
725.9,0.0096
725.8,0.0097
725.7,0.0095
725.6,0.0088
725.5,0.0091
725.4,0.0089
725.3,0.0092
725.2,0.0095
725.1,0.0094
725.0,0.0093
724.9,0.0087
724.8,0.0087
724.7,0.0090
724.6,0.0088
724.5,0.0093
724.4,0.0091
724.3,0.0087
724.2,0.0094
724.1,0.0097
724.0,0.0084
723.9,0.0080
723.8,0.0086
723.7,0.0087
723.6,0.0089
723.5,0.0090
723.4,0.0086
723.3,0.0094
723.2,0.0093
723.1,0.0093
723.0,0.0101
722.9,0.0099
722.8,0.0094
722.7,0.0092
722.6,0.0094
722.5,0.0094
722.4,0.0094
722.3,0.0095
722.2,0.0090
722.1,0.0094
722.0,0.0100
721.9,0.0098
721.8,0.0094
721.7,0.0092
721.6,0.0094
721.5,0.0090
721.4,0.0089
721.3,0.0089
721.2,0.0090
721.1,0.0093
721.0,0.0096
720.9,0.0097
720.8,0.0094
720.7,0.0095
720.6,0.0094
720.5,0.0095
720.4,0.0095
720.3,0.0092
720.2,0.0091
720.1,0.0092
720.0,0.0092
719.9,0.0100
719.8,0.0097
719.7,0.0096
719.6,0.0104
719.5,0.0098
719.4,0.0093
719.3,0.0095
719.2,0.0093
719.1,0.0099
719.0,0.0103
718.9,0.0096
718.8,0.0096
718.7,0.0100
718.6,0.0095
718.5,0.0098
718.4,0.0100
718.3,0.0099
718.2,0.0098
718.1,0.0094
718.0,0.0094
717.9,0.0101
717.8,0.0100
717.7,0.0091
717.6,0.0092
717.5,0.0093
717.4,0.0094
717.3,0.0098
717.2,0.0095
717.1,0.0097
717.0,0.0098
716.9,0.0096
716.8,0.0101
716.7,0.0100
716.6,0.0094
716.5,0.0092
716.4,0.0091
716.3,0.0089
716.2,0.0094
716.1,0.0089
716.0,0.0089
715.9,0.0094
715.8,0.0093
715.7,0.0095
715.6,0.0096
715.5,0.0099
715.4,0.0099
715.3,0.0095
715.2,0.0094
715.1,0.0092
715.0,0.0098
714.9,0.0096
714.8,0.0094
714.7,0.0098
714.6,0.0102
714.5,0.0097
714.4,0.0093
714.3,0.0096
714.2,0.0094
714.1,0.0095
714.0,0.0097
713.9,0.0090
713.8,0.0092
713.7,0.0094
713.6,0.0094
713.5,0.0098
713.4,0.0095
713.3,0.0096
713.2,0.0096
713.1,0.0098
713.0,0.0095
712.9,0.0097
712.8,0.0095
712.7,0.0102
712.6,0.0094
712.5,0.0092
712.4,0.0104
712.3,0.0102
712.2,0.0098
712.1,0.0101
712.0,0.0103
711.9,0.0100
711.8,0.0097
711.7,0.0102
711.6,0.0098
711.5,0.0102
711.4,0.0096
711.3,0.0099
711.2,0.0103
711.1,0.0104
711.0,0.0099
710.9,0.0103
710.8,0.0103
710.7,0.0097
710.6,0.0099
710.5,0.0098
710.4,0.0103
710.3,0.0098
710.2,0.0099
710.1,0.0101
710.0,0.0105
709.9,0.0104
709.8,0.0103
709.7,0.0106
709.6,0.0109
709.5,0.0098
709.4,0.0101
709.3,0.0108
709.2,0.0099
709.1,0.0102
709.0,0.0104
708.9,0.0096
708.8,0.0100
708.7,0.0103
708.6,0.0101
708.5,0.0104
708.4,0.0098
708.3,0.0098
708.2,0.0101
708.1,0.0101
708.0,0.0105
707.9,0.0098
707.8,0.0100
707.7,0.0104
707.6,0.0103
707.5,0.0097
707.4,0.0102
707.3,0.0107
707.2,0.0104
707.1,0.0097
707.0,0.0105
706.9,0.0105
706.8,0.0095
706.7,0.0103
706.6,0.0103
706.5,0.0100
706.4,0.0100
706.3,0.0097
706.2,0.0107
706.1,0.0099
706.0,0.0115
705.9,0.0116
705.8,0.0096
705.7,0.0099
705.6,0.0107
705.5,0.0105
705.4,0.0104
705.3,0.0104
705.2,0.0103
705.1,0.0101
705.0,0.0109
704.9,0.0105
704.8,0.0111
704.7,0.0111
704.6,0.0101
704.5,0.0103
704.4,0.0102
704.3,0.0106
704.2,0.0106
704.1,0.0102
704.0,0.0108
703.9,0.0101
703.8,0.0110
703.7,0.0104
703.6,0.0100
703.5,0.0102
703.4,0.0105
703.3,0.0102
703.2,0.0102
703.1,0.0105
703.0,0.0104
702.9,0.0101
702.8,0.0103
702.7,0.0104
702.6,0.0102
702.5,0.0102
702.4,0.0106
702.3,0.0107
702.2,0.0108
702.1,0.0108
702.0,0.0107
701.9,0.0104
701.8,0.0106
701.7,0.0110
701.6,0.0112
701.5,0.0108
701.4,0.0107
701.3,0.0106
701.2,0.0106
701.1,0.0111
701.0,0.0104
700.9,0.0104
700.8,0.0106
700.7,0.0104
700.6,0.0107
700.5,0.0110
700.4,0.0107
700.3,0.0111
700.2,0.0111
700.1,0.0107
700.0,0.0109
699.9,0.0113
699.8,0.0109
699.7,0.0103
699.6,0.0108
699.5,0.0110
699.4,0.0111
699.3,0.0108
699.2,0.0103
699.1,0.0108
699.0,0.0113
698.9,0.0107
698.8,0.0108
698.7,0.0110
698.6,0.0112
698.5,0.0112
698.4,0.0108
698.3,0.0108
698.2,0.0110
698.1,0.0112
698.0,0.0114
697.9,0.0111
697.8,0.0108
697.7,0.0108
697.6,0.0106
697.5,0.0111
697.4,0.0114
697.3,0.0111
697.2,0.0109
697.1,0.0111
697.0,0.0115
696.9,0.0114
696.8,0.0119
696.7,0.0117
696.6,0.0112
696.5,0.0115
696.4,0.0110
696.3,0.0105
696.2,0.0108
696.1,0.0111
696.0,0.0116
695.9,0.0112
695.8,0.0108
695.7,0.0113
695.6,0.0118
695.5,0.0114
695.4,0.0109
695.3,0.0109
695.2,0.0111
695.1,0.0113
695.0,0.0111
694.9,0.0107
694.8,0.0108
694.7,0.0110
694.6,0.0111
694.5,0.0112
694.4,0.0111
694.3,0.0112
694.2,0.0109
694.1,0.0106
694.0,0.0112
693.9,0.0114
693.8,0.0111
693.7,0.0110
693.6,0.0111
693.5,0.0114
693.4,0.0118
693.3,0.0119
693.2,0.0116
693.1,0.0114
693.0,0.0109
692.9,0.0112
692.8,0.0112
692.7,0.0110
692.6,0.0111
692.5,0.0112
692.4,0.0112
692.3,0.0114
692.2,0.0116
692.1,0.0115
692.0,0.0115
691.9,0.0116
691.8,0.0112
691.7,0.0113
691.6,0.0116
691.5,0.0118
691.4,0.0117
691.3,0.0116
691.2,0.0115
691.1,0.0113
691.0,0.0114
690.9,0.0114
690.8,0.0119
690.7,0.0115
690.6,0.0116
690.5,0.0119
690.4,0.0122
690.3,0.0126
690.2,0.0121
690.1,0.0119
690.0,0.0121
689.9,0.0120
689.8,0.0122
689.7,0.0122
689.6,0.0117
689.5,0.0121
689.4,0.0127
689.3,0.0130
689.2,0.0122
689.1,0.0119
689.0,0.0117
688.9,0.0123
688.8,0.0122
688.7,0.0123
688.6,0.0119
688.5,0.0123
688.4,0.0121
688.3,0.0120
688.2,0.0124
688.1,0.0121
688.0,0.0114
687.9,0.0118
687.8,0.0117
687.7,0.0123
687.6,0.0123
687.5,0.0124
687.4,0.0123
687.3,0.0125
687.2,0.0124
687.1,0.0118
687.0,0.0115
686.9,0.0117
686.8,0.0123
686.7,0.0119
686.6,0.0119
686.5,0.0123
686.4,0.0129
686.3,0.0124
686.2,0.0123
686.1,0.0119
686.0,0.0124
685.9,0.0121
685.8,0.0118
685.7,0.0123
685.6,0.0123
685.5,0.0127
685.4,0.0122
685.3,0.0129
685.2,0.0122
685.1,0.0122
685.0,0.0122
684.9,0.0123
684.8,0.0124
684.7,0.0128
684.6,0.0124
684.5,0.0126
684.4,0.0128
684.3,0.0136
684.2,0.0135
684.1,0.0128
684.0,0.0128
683.9,0.0126
683.8,0.0123
683.7,0.0124
683.6,0.0126
683.5,0.0131
683.4,0.0123
683.3,0.0130
683.2,0.0131
683.1,0.0131
683.0,0.0136
682.9,0.0130
682.8,0.0129
682.7,0.0124
682.6,0.0125
682.5,0.0127
682.4,0.0127
682.3,0.0126
682.2,0.0127
682.1,0.0128
682.0,0.0135
681.9,0.0129
681.8,0.0126
681.7,0.0129
681.6,0.0132
681.5,0.0126
681.4,0.0124
681.3,0.0128
681.2,0.0127
681.1,0.0127
681.0,0.0131
680.9,0.0134
680.8,0.0127
680.7,0.0128
680.6,0.0127
680.5,0.0130
680.4,0.0130
680.3,0.0130
680.2,0.0133
680.1,0.0139
680.0,0.0137
679.9,0.0140
679.8,0.0132
679.7,0.0134
679.6,0.0129
679.5,0.0130
679.4,0.0134
679.3,0.0136
679.2,0.0131
679.1,0.0137
679.0,0.0133
678.9,0.0135
678.8,0.0134
678.7,0.0139
678.6,0.0137
678.5,0.0140
678.4,0.0136
678.3,0.0130
678.2,0.0129
678.1,0.0139
678.0,0.0135
677.9,0.0133
677.8,0.0137
677.7,0.0133
677.6,0.0136
677.5,0.0137
677.4,0.0140
677.3,0.0137
677.2,0.0138
677.1,0.0139
677.0,0.0137
676.9,0.0134
676.8,0.0135
676.7,0.0137
676.6,0.0137
676.5,0.0142
676.4,0.0140
676.3,0.0140
676.2,0.0140
676.1,0.0138
676.0,0.0141
675.9,0.0143
675.8,0.0143
675.7,0.0140
675.6,0.0143
675.5,0.0139
675.4,0.0141
675.3,0.0140
675.2,0.0139
675.1,0.0144
675.0,0.0141
674.9,0.0137
674.8,0.0143
674.7,0.0141
674.6,0.0140
674.5,0.0141
674.4,0.0140
674.3,0.0142
674.2,0.0141
674.1,0.0143
674.0,0.0144
673.9,0.0140
673.8,0.0138
673.7,0.0141
673.6,0.0145
673.5,0.0146
673.4,0.0143
673.3,0.0139
673.2,0.0144
673.1,0.0145
673.0,0.0142
672.9,0.0143
672.8,0.0148
672.7,0.0145
672.6,0.0145
672.5,0.0149
672.4,0.0149
672.3,0.0148
672.2,0.0147
672.1,0.0146
672.0,0.0146
671.9,0.0147
671.8,0.0144
671.7,0.0143
671.6,0.0145
671.5,0.0149
671.4,0.0149
671.3,0.0148
671.2,0.0148
671.1,0.0146
671.0,0.0145
670.9,0.0148
670.8,0.0149
670.7,0.0146
670.6,0.0147
670.5,0.0147
670.4,0.0147
670.3,0.0149
670.2,0.0153
670.1,0.0151
670.0,0.0146
669.9,0.0148
669.8,0.0148
669.7,0.0142
669.6,0.0142
669.5,0.0147
669.4,0.0149
669.3,0.0146
669.2,0.0146
669.1,0.0152
669.0,0.0154
668.9,0.0154
668.8,0.0153
668.7,0.0149
668.6,0.0149
668.5,0.0153
668.4,0.0153
668.3,0.0150
668.2,0.0146
668.1,0.0151
668.0,0.0148
667.9,0.0149
667.8,0.0147
667.7,0.0145
667.6,0.0150
667.5,0.0153
667.4,0.0153
667.3,0.0146
667.2,0.0151
667.1,0.0147
667.0,0.0149
666.9,0.0150
666.8,0.0151
666.7,0.0151
666.6,0.0147
666.5,0.0146
666.4,0.0151
666.3,0.0152
666.2,0.0148
666.1,0.0152
666.0,0.0148
665.9,0.0146
665.8,0.0149
665.7,0.0156
665.6,0.0151
665.5,0.0148
665.4,0.0150
665.3,0.0153
665.2,0.0150
665.1,0.0145
665.0,0.0151
664.9,0.0148
664.8,0.0147
664.7,0.0149
664.6,0.0145
664.5,0.0149
664.4,0.0150
664.3,0.0150
664.2,0.0150
664.1,0.0147
664.0,0.0149
663.9,0.0150
663.8,0.0149
663.7,0.0150
663.6,0.0148
663.5,0.0150
663.4,0.0151
663.3,0.0153
663.2,0.0151
663.1,0.0149
663.0,0.0151
662.9,0.0146
662.8,0.0148
662.7,0.0148
662.6,0.0145
662.5,0.0151
662.4,0.0146
662.3,0.0150
662.2,0.0148
662.1,0.0143
662.0,0.0146
661.9,0.0150
661.8,0.0150
661.7,0.0149
661.6,0.0148
661.5,0.0150
661.4,0.0149
661.3,0.0146
661.2,0.0147
661.1,0.0154
661.0,0.0154
660.9,0.0141
660.8,0.0143
660.7,0.0143
660.6,0.0148
660.5,0.0150
660.4,0.0146
660.3,0.0147
660.2,0.0147
660.1,0.0146
660.0,0.0150
659.9,0.0149
659.8,0.0144
659.7,0.0149
659.6,0.0147
659.5,0.0140
659.4,0.0142
659.3,0.0146
659.2,0.0147
659.1,0.0148
659.0,0.0144
658.9,0.0148
658.8,0.0151
658.7,0.0147
658.6,0.0143
658.5,0.0145
658.4,0.0144
658.3,0.0145
658.2,0.0146
658.1,0.0147
658.0,0.0140
657.9,0.0148
657.8,0.0142
657.7,0.0141
657.6,0.0141
657.5,0.0148
657.4,0.0142
657.3,0.0146
657.2,0.0143
657.1,0.0144
657.0,0.0143
656.9,0.0142
656.8,0.0140
656.7,0.0143
656.6,0.0141
656.5,0.0143
656.4,0.0144
656.3,0.0143
656.2,0.0144
656.1,0.0144
656.0,0.0143
655.9,0.0139
655.8,0.0139
655.7,0.0137
655.6,0.0141
655.5,0.0145
655.4,0.0141
655.3,0.0142
655.2,0.0143
655.1,0.0142
655.0,0.0143
654.9,0.0141
654.8,0.0144
654.7,0.0137
654.6,0.0136
654.5,0.0135
654.4,0.0141
654.3,0.0139
654.2,0.0138
654.1,0.0138
654.0,0.0139
653.9,0.0145
653.8,0.0139
653.7,0.0137
653.6,0.0136
653.5,0.0138
653.4,0.0141
653.3,0.0137
653.2,0.0141
653.1,0.0138
653.0,0.0140
652.9,0.0139
652.8,0.0131
652.7,0.0133
652.6,0.0134
652.5,0.0136
652.4,0.0134
652.3,0.0140
652.2,0.0139
652.1,0.0133
652.0,0.0135
651.9,0.0137
651.8,0.0135
651.7,0.0134
651.6,0.0134
651.5,0.0135
651.4,0.0138
651.3,0.0140
651.2,0.0140
651.1,0.0137
651.0,0.0138
650.9,0.0140
650.8,0.0139
650.7,0.0135
650.6,0.0136
650.5,0.0140
650.4,0.0140
650.3,0.0138
650.2,0.0136
650.1,0.0139
650.0,0.0139
649.9,0.0134
649.8,0.0131
649.7,0.0133
649.6,0.0132
649.5,0.0131
649.4,0.0133
649.3,0.0138
649.2,0.0136
649.1,0.0133
649.0,0.0132
648.9,0.0128
648.8,0.0132
648.7,0.0134
648.6,0.0131
648.5,0.0132
648.4,0.0135
648.3,0.0134
648.2,0.0134
648.1,0.0136
648.0,0.0137
647.9,0.0138
647.8,0.0136
647.7,0.0135
647.6,0.0134
647.5,0.0133
647.4,0.0136
647.3,0.0136
647.2,0.0137
647.1,0.0138
647.0,0.0138
646.9,0.0135
646.8,0.0135
646.7,0.0134
646.6,0.0133
646.5,0.0134
646.4,0.0140
646.3,0.0139
646.2,0.0134
646.1,0.0134
646.0,0.0133
645.9,0.0134
645.8,0.0136
645.7,0.0136
645.6,0.0134
645.5,0.0135
645.4,0.0135
645.3,0.0140
645.2,0.0143
645.1,0.0138
645.0,0.0136
644.9,0.0138
644.8,0.0141
644.7,0.0138
644.6,0.0139
644.5,0.0137
644.4,0.0135
644.3,0.0137
644.2,0.0140
644.1,0.0141
644.0,0.0138
643.9,0.0133
643.8,0.0134
643.7,0.0134
643.6,0.0137
643.5,0.0136
643.4,0.0134
643.3,0.0134
643.2,0.0135
643.1,0.0136
643.0,0.0135
642.9,0.0136
642.8,0.0138
642.7,0.0138
642.6,0.0131
642.5,0.0135
642.4,0.0139
642.3,0.0140
642.2,0.0138
642.1,0.0138
642.0,0.0134
641.9,0.0140
641.8,0.0143
641.7,0.0142
641.6,0.0140
641.5,0.0138
641.4,0.0136
641.3,0.0141
641.2,0.0136
641.1,0.0136
641.0,0.0138
640.9,0.0141
640.8,0.0139
640.7,0.0139
640.6,0.0142
640.5,0.0140
640.4,0.0141
640.3,0.0134
640.2,0.0139
640.1,0.0138
640.0,0.0139
639.9,0.0136
639.8,0.0139
639.7,0.0137
639.6,0.0136
639.5,0.0134
639.4,0.0143
639.3,0.0137
639.2,0.0135
639.1,0.0138
639.0,0.0140
638.9,0.0137
638.8,0.0139
638.7,0.0139
638.6,0.0141
638.5,0.0133
638.4,0.0141
638.3,0.0144
638.2,0.0135
638.1,0.0141
638.0,0.0145
637.9,0.0144
637.8,0.0139
637.7,0.0147
637.6,0.0138
637.5,0.0146
637.4,0.0141
637.3,0.0143
637.2,0.0141
637.1,0.0144
637.0,0.0140
636.9,0.0138
636.8,0.0145
636.7,0.0139
636.6,0.0145
636.5,0.0144
636.4,0.0135
636.3,0.0141
636.2,0.0142
636.1,0.0143
636.0,0.0140
635.9,0.0140
635.8,0.0144
635.7,0.0143
635.6,0.0137
635.5,0.0139
635.4,0.0143
635.3,0.0140
635.2,0.0145
635.1,0.0144
635.0,0.0145
634.9,0.0146
634.8,0.0139
634.7,0.0149
634.6,0.0146
634.5,0.0148
634.4,0.0142
634.3,0.0145
634.2,0.0145
634.1,0.0144
634.0,0.0143
633.9,0.0143
633.8,0.0142
633.7,0.0143
633.6,0.0143
633.5,0.0147
633.4,0.0139
633.3,0.0144
633.2,0.0140
633.1,0.0136
633.0,0.0144
632.9,0.0146
632.8,0.0143
632.7,0.0137
632.6,0.0143
632.5,0.0141
632.4,0.0148
632.3,0.0146
632.2,0.0140
632.1,0.0144
632.0,0.0142
631.9,0.0146
631.8,0.0146
631.7,0.0144
631.6,0.0143
631.5,0.0145
631.4,0.0146
631.3,0.0144
631.2,0.0146
631.1,0.0146
631.0,0.0146
630.9,0.0143
630.8,0.0145
630.7,0.0146
630.6,0.0147
630.5,0.0143
630.4,0.0147
630.3,0.0145
630.2,0.0145
630.1,0.0148
630.0,0.0149
629.9,0.0149
629.8,0.0144
629.7,0.0147
629.6,0.0145
629.5,0.0148
629.4,0.0147
629.3,0.0145
629.2,0.0149
629.1,0.0151
629.0,0.0148
628.9,0.0150
628.8,0.0148
628.7,0.0152
628.6,0.0146
628.5,0.0146
628.4,0.0152
628.3,0.0147
628.2,0.0149
628.1,0.0150
628.0,0.0151
627.9,0.0152
627.8,0.0152
627.7,0.0150
627.6,0.0149
627.5,0.0151
627.4,0.0152
627.3,0.0156
627.2,0.0158
627.1,0.0155
627.0,0.0151
626.9,0.0152
626.8,0.0151
626.7,0.0153
626.6,0.0152
626.5,0.0152
626.4,0.0155
626.3,0.0154
626.2,0.0151
626.1,0.0150
626.0,0.0151
625.9,0.0154
625.8,0.0155
625.7,0.0152
625.6,0.0150
625.5,0.0152
625.4,0.0153
625.3,0.0151
625.2,0.0154
625.1,0.0155
625.0,0.0151
624.9,0.0151
624.8,0.0152
624.7,0.0151
624.6,0.0152
624.5,0.0153
624.4,0.0152
624.3,0.0152
624.2,0.0153
624.1,0.0154
624.0,0.0154
623.9,0.0155
623.8,0.0157
623.7,0.0154
623.6,0.0152
623.5,0.0151
623.4,0.0155
623.3,0.0154
623.2,0.0153
623.1,0.0158
623.0,0.0155
622.9,0.0153
622.8,0.0155
622.7,0.0152
622.6,0.0150
622.5,0.0153
622.4,0.0154
622.3,0.0154
622.2,0.0151
622.1,0.0154
622.0,0.0155
621.9,0.0154
621.8,0.0157
621.7,0.0158
621.6,0.0154
621.5,0.0154
621.4,0.0155
621.3,0.0154
621.2,0.0154
621.1,0.0158
621.0,0.0155
620.9,0.0157
620.8,0.0158
620.7,0.0156
620.6,0.0154
620.5,0.0157
620.4,0.0157
620.3,0.0158
620.2,0.0156
620.1,0.0156
620.0,0.0158
619.9,0.0157
619.8,0.0156
619.7,0.0155
619.6,0.0155
619.5,0.0156
619.4,0.0158
619.3,0.0156
619.2,0.0157
619.1,0.0156
619.0,0.0156
618.9,0.0157
618.8,0.0153
618.7,0.0155
618.6,0.0154
618.5,0.0152
618.4,0.0153
618.3,0.0159
618.2,0.0154
618.1,0.0157
618.0,0.0156
617.9,0.0156
617.8,0.0158
617.7,0.0158
617.6,0.0159
617.5,0.0156
617.4,0.0156
617.3,0.0159
617.2,0.0156
617.1,0.0158
617.0,0.0163
616.9,0.0156
616.8,0.0153
616.7,0.0157
616.6,0.0157
616.5,0.0156
616.4,0.0157
616.3,0.0155
616.2,0.0157
616.1,0.0159
616.0,0.0153
615.9,0.0151
615.8,0.0156
615.7,0.0155
615.6,0.0158
615.5,0.0157
615.4,0.0157
615.3,0.0156
615.2,0.0153
615.1,0.0157
615.0,0.0156
614.9,0.0154
614.8,0.0156
614.7,0.0157
614.6,0.0156
614.5,0.0153
614.4,0.0157
614.3,0.0152
614.2,0.0154
614.1,0.0149
614.0,0.0154
613.9,0.0154
613.8,0.0154
613.7,0.0155
613.6,0.0153
613.5,0.0151
613.4,0.0151
613.3,0.0152
613.2,0.0155
613.1,0.0152
613.0,0.0145
612.9,0.0151
612.8,0.0151
612.7,0.0156
612.6,0.0148
612.5,0.0152
612.4,0.0150
612.3,0.0150
612.2,0.0156
612.1,0.0153
612.0,0.0150
611.9,0.0149
611.8,0.0154
611.7,0.0153
611.6,0.0150
611.5,0.0148
611.4,0.0154
611.3,0.0154
611.2,0.0150
611.1,0.0151
611.0,0.0151
610.9,0.0154
610.8,0.0153
610.7,0.0153
610.6,0.0154
610.5,0.0150
610.4,0.0147
610.3,0.0150
610.2,0.0151
610.1,0.0145
610.0,0.0148
609.9,0.0148
609.8,0.0148
609.7,0.0150
609.6,0.0148
609.5,0.0147
609.4,0.0148
609.3,0.0147
609.2,0.0149
609.1,0.0144
609.0,0.0149
608.9,0.0151
608.8,0.0149
608.7,0.0149
608.6,0.0150
608.5,0.0148
608.4,0.0144
608.3,0.0147
608.2,0.0147
608.1,0.0146
608.0,0.0151
607.9,0.0144
607.8,0.0144
607.7,0.0142
607.6,0.0144
607.5,0.0146
607.4,0.0145
607.3,0.0141
607.2,0.0141
607.1,0.0142
607.0,0.0143
606.9,0.0142
606.8,0.0141
606.7,0.0143
606.6,0.0143
606.5,0.0142
606.4,0.0142
606.3,0.0147
606.2,0.0144
606.1,0.0144
606.0,0.0145
605.9,0.0141
605.8,0.0139
605.7,0.0141
605.6,0.0142
605.5,0.0140
605.4,0.0143
605.3,0.0141
605.2,0.0141
605.1,0.0139
605.0,0.0143
604.9,0.0144
604.8,0.0140
604.7,0.0139
604.6,0.0140
604.5,0.0139
604.4,0.0139
604.3,0.0137
604.2,0.0138
604.1,0.0135
604.0,0.0137
603.9,0.0141
603.8,0.0143
603.7,0.0141
603.6,0.0140
603.5,0.0138
603.4,0.0140
603.3,0.0137
603.2,0.0136
603.1,0.0136
603.0,0.0137
602.9,0.0139
602.8,0.0135
602.7,0.0135
602.6,0.0138
602.5,0.0137
602.4,0.0136
602.3,0.0137
602.2,0.0137
602.1,0.0136
602.0,0.0134
601.9,0.0134
601.8,0.0137
601.7,0.0138
601.6,0.0137
601.5,0.0137
601.4,0.0136
601.3,0.0134
601.2,0.0130
601.1,0.0130
601.0,0.0132
600.9,0.0131
600.8,0.0131
600.7,0.0133
600.6,0.0133
600.5,0.0132
600.4,0.0131
600.3,0.0130
600.2,0.0132
600.1,0.0131
600.0,0.0132
599.9,0.0134
599.8,0.0132
599.7,0.0131
599.6,0.0132
599.5,0.0131
599.4,0.0129
599.3,0.0130
599.2,0.0134
599.1,0.0131
599.0,0.0128
598.9,0.0129
598.8,0.0130
598.7,0.0129
598.6,0.0130
598.5,0.0132
598.4,0.0132
598.3,0.0128
598.2,0.0128
598.1,0.0127
598.0,0.0125
597.9,0.0130
597.8,0.0129
597.7,0.0127
597.6,0.0128
597.5,0.0130
597.4,0.0126
597.3,0.0125
597.2,0.0129
597.1,0.0128
597.0,0.0128
596.9,0.0126
596.8,0.0124
596.7,0.0127
596.6,0.0126
596.5,0.0125
596.4,0.0124
596.3,0.0124
596.2,0.0125
596.1,0.0126
596.0,0.0122
595.9,0.0123
595.8,0.0124
595.7,0.0127
595.6,0.0127
595.5,0.0127
595.4,0.0130
595.3,0.0126
595.2,0.0125
595.1,0.0128
595.0,0.0129
594.9,0.0125
594.8,0.0127
594.7,0.0128
594.6,0.0126
594.5,0.0127
594.4,0.0126
594.3,0.0124
594.2,0.0122
594.1,0.0123
594.0,0.0120
593.9,0.0125
593.8,0.0126
593.7,0.0126
593.6,0.0121
593.5,0.0122
593.4,0.0121
593.3,0.0125
593.2,0.0121
593.1,0.0119
593.0,0.0120
592.9,0.0124
592.8,0.0124
592.7,0.0123
592.6,0.0122
592.5,0.0122
592.4,0.0124
592.3,0.0120
592.2,0.0120
592.1,0.0123
592.0,0.0122
591.9,0.0119
591.8,0.0119
591.7,0.0119
591.6,0.0120
591.5,0.0118
591.4,0.0120
591.3,0.0122
591.2,0.0122
591.1,0.0118
591.0,0.0115
590.9,0.0118
590.8,0.0119
590.7,0.0114
590.6,0.0121
590.5,0.0121
590.4,0.0119
590.3,0.0117
590.2,0.0121
590.1,0.0122
590.0,0.0122
589.9,0.0115
589.8,0.0119
589.7,0.0117
589.6,0.0118
589.5,0.0119
589.4,0.0119
589.3,0.0122
589.2,0.0116
589.1,0.0116
589.0,0.0114
588.9,0.0118
588.8,0.0119
588.7,0.0123
588.6,0.0121
588.5,0.0116
588.4,0.0119
588.3,0.0119
588.2,0.0116
588.1,0.0116
588.0,0.0118
587.9,0.0117
587.8,0.0114
587.7,0.0116
587.6,0.0117
587.5,0.0120
587.4,0.0115
587.3,0.0113
587.2,0.0116
587.1,0.0116
587.0,0.0116
586.9,0.0115
586.8,0.0116
586.7,0.0113
586.6,0.0117
586.5,0.0116
586.4,0.0117
586.3,0.0115
586.2,0.0112
586.1,0.0112
586.0,0.0114
585.9,0.0116
585.8,0.0111
585.7,0.0108
585.6,0.0113
585.5,0.0116
585.4,0.0114
585.3,0.0111
585.2,0.0113
585.1,0.0112
585.0,0.0112
584.9,0.0113
584.8,0.0116
584.7,0.0113
584.6,0.0110
584.5,0.0113
584.4,0.0114
584.3,0.0112
584.2,0.0112
584.1,0.0109
584.0,0.0109
583.9,0.0112
583.8,0.0112
583.7,0.0109
583.6,0.0113
583.5,0.0114
583.4,0.0114
583.3,0.0109
583.2,0.0110
583.1,0.0112
583.0,0.0113
582.9,0.0111
582.8,0.0110
582.7,0.0111
582.6,0.0113
582.5,0.0109
582.4,0.0107
582.3,0.0107
582.2,0.0109
582.1,0.0109
582.0,0.0109
581.9,0.0106
581.8,0.0105
581.7,0.0107
581.6,0.0106
581.5,0.0108
581.4,0.0106
581.3,0.0107
581.2,0.0106
581.1,0.0106
581.0,0.0108
580.9,0.0109
580.8,0.0109
580.7,0.0108
580.6,0.0108
580.5,0.0108
580.4,0.0108
580.3,0.0107
580.2,0.0106
580.1,0.0105
580.0,0.0110
