Created as New Dataset,
nm,A
800.0,-0.0009
799.9,-0.0029
799.8,-0.0009
799.7,-0.0018
799.6,-0.0018
799.5,-0.0010
799.4,-0.0016
799.3,-0.0018
799.2,-0.0023
799.1,-0.0031
799.0,-0.0011
798.9,-0.0030
798.8,-0.0014
798.7,-0.0012
798.6,-0.0025
798.5,-0.0027
798.4,-0.0018
798.3,-0.0015
798.2,-0.0012
798.1,-0.0019
798.0,-0.0015
797.9,-0.0016
797.8,-0.0004
797.7,-0.0021
797.6,-0.0021
797.5,-0.0022
797.4,-0.0024
797.3,-0.0022
797.2,-0.0010
797.1,-0.0018
797.0,-0.0015
796.9,-0.0024
796.8,-0.0018
796.7,-0.0017
796.6,-0.0011
796.5,-0.0025
796.4,-0.0013
796.3,-0.0020
796.2,-0.0026
796.1,-0.0010
796.0,-0.0018
795.9,-0.0010
795.8,-0.0012
795.7,-0.0015
795.6,-0.0019
795.5,-0.0014
795.4,-0.0026
795.3,-0.0012
795.2,-0.0017
795.1,-0.0019
795.0,-0.0020
794.9,-0.0022
794.8,-0.0023
794.7,-0.0015
794.6,-0.0014
794.5,-0.0013
794.4,-0.0016
794.3,-0.0016
794.2,-0.0015
794.1,-0.0020
794.0,-0.0013
793.9,-0.0006
793.8,-0.0005
793.7,-0.0014
793.6,-0.0022
793.5,-0.0019
793.4,-0.0023
793.3,-0.0008
793.2,-0.0011
793.1,-0.0014
793.0,-0.0018
792.9,-0.0018
792.8,-0.0025
792.7,-0.0018
792.6,-0.0007
792.5,-0.0020
792.4,-0.0017
792.3,-0.0020
792.2,-0.0019
792.1,-0.0020
792.0,-0.0020
791.9,-0.0020
791.8,-0.0020
791.7,-0.0024
791.6,-0.0023
791.5,-0.0026
791.4,-0.0026
791.3,-0.0027
791.2,-0.0020
791.1,-0.0016
791.0,-0.0013
790.9,-0.0021
790.8,-0.0025
790.7,-0.0017
790.6,-0.0020
790.5,-0.0023
790.4,-0.0021
790.3,-0.0012
790.2,-0.0009
790.1,-0.0017
790.0,-0.0014
789.9,-0.0016
789.8,-0.0023
789.7,-0.0018
789.6,-0.0023
789.5,-0.0019
789.4,-0.0017
789.3,-0.0019
789.2,-0.0019
789.1,-0.0012
789.0,-0.0009
788.9,-0.0022
788.8,-0.0021
788.7,-0.0017
788.6,-0.0028
788.5,-0.0026
788.4,-0.0015
788.3,-0.0012
788.2,-0.0015
788.1,-0.0014
788.0,-0.0015
787.9,-0.0022
787.8,-0.0018
787.7,-0.0013
787.6,-0.0016
787.5,-0.0015
787.4,-0.0017
787.3,-0.0021
787.2,-0.0015
787.1,-0.0016
787.0,-0.0019
786.9,-0.0019
786.8,-0.0021
786.7,-0.0024
786.6,-0.0023
786.5,-0.0015
786.4,-0.0018
786.3,-0.0021
786.2,-0.0019
786.1,-0.0015
786.0,-0.0022
785.9,-0.0024
785.8,-0.0023
785.7,-0.0030
785.6,-0.0029
785.5,-0.0021
785.4,-0.0017
785.3,-0.0014
785.2,-0.0024
785.1,-0.0027
785.0,-0.0025
784.9,-0.0018
784.8,-0.0021
784.7,-0.0025
784.6,-0.0019
784.5,-0.0021
784.4,-0.0015
784.3,-0.0017
784.2,-0.0016
784.1,-0.0016
784.0,-0.0025
783.9,-0.0021
783.8,-0.0014
783.7,-0.0016
783.6,-0.0015
783.5,-0.0022
783.4,-0.0020
783.3,-0.0026
783.2,-0.0019
783.1,-0.0020
783.0,-0.0015
782.9,-0.0021
782.8,-0.0020
782.7,-0.0023
782.6,-0.0017
782.5,-0.0022
782.4,-0.0015
782.3,-0.0015
782.2,-0.0019
782.1,-0.0015
782.0,-0.0017
781.9,-0.0020
781.8,-0.0009
781.7,-0.0025
781.6,-0.0022
781.5,-0.0030
781.4,-0.0025
781.3,-0.0019
781.2,-0.0022
781.1,-0.0024
781.0,-0.0023
780.9,-0.0022
780.8,-0.0030
780.7,-0.0020
780.6,-0.0015
780.5,-0.0023
780.4,-0.0025
780.3,-0.0023
780.2,-0.0027
780.1,-0.0016
780.0,-0.0021
779.9,-0.0011
779.8,-0.0019
779.7,-0.0026
779.6,-0.0025
779.5,-0.0017
779.4,-0.0018
779.3,-0.0020
779.2,-0.0020
779.1,-0.0023
779.0,-0.0017
778.9,-0.0018
778.8,-0.0017
778.7,-0.0021
778.6,-0.0026
778.5,-0.0019
778.4,-0.0016
778.3,-0.0016
778.2,-0.0011
778.1,-0.0019
778.0,-0.0015
777.9,-0.0010
777.8,-0.0020
777.7,-0.0022
777.6,-0.0015
777.5,-0.0020
777.4,-0.0014
777.3,-0.0010
777.2,-0.0017
777.1,-0.0009
777.0,-0.0017
776.9,-0.0006
776.8,-0.0019
776.7,-0.0022
776.6,-0.0015
776.5,-0.0022
776.4,-0.0016
776.3,-0.0028
776.2,-0.0024
776.1,-0.0029
776.0,-0.0025
775.9,-0.0020
775.8,-0.0013
775.7,-0.0021
775.6,-0.0026
775.5,-0.0028
775.4,-0.0026
775.3,-0.0001
775.2,-0.0018
775.1,-0.0017
775.0,-0.0016
774.9,-0.0013
774.8,-0.0019
774.7,-0.0018
774.6,-0.0009
774.5,-0.0012
774.4,-0.0017
774.3,-0.0013
774.2,-0.0018
774.1,-0.0012
774.0,-0.0019
773.9,-0.0020
773.8,-0.0018
773.7,-0.0019
773.6,-0.0018
773.5,-0.0019
773.4,-0.0018
773.3,-0.0009
773.2,-0.0006
773.1,-0.0017
773.0,-0.0017
772.9,-0.0018
772.8,-0.0013
772.7,-0.0019
772.6,-0.0022
772.5,-0.0018
772.4,-0.0023
772.3,-0.0013
772.2,-0.0016
772.1,-0.0016
772.0,-0.0014
771.9,-0.0026
771.8,-0.0017
771.7,-0.0023
771.6,-0.0023
771.5,-0.0014
771.4,-0.0021
771.3,-0.0020
771.2,-0.0022
771.1,-0.0016
771.0,-0.0017
770.9,-0.0027
770.8,-0.0019
770.7,-0.0011
770.6,-0.0015
770.5,-0.0018
770.4,-0.0025
770.3,-0.0020
770.2,-0.0008
770.1,-0.0005
770.0,-0.0002
769.9,-0.0010
769.8,-0.0022
769.7,-0.0016
769.6,-0.0023
769.5,-0.0020
769.4,-0.0016
769.3,-0.0018
769.2,-0.0008
769.1,-0.0006
769.0,-0.0011
768.9,-0.0015
768.8,-0.0011
768.7,-0.0010
768.6,-0.0016
768.5,-0.0017
768.4,-0.0019
768.3,-0.0018
768.2,-0.0021
768.1,-0.0013
768.0,-0.0011
767.9,-0.0015
767.8,-0.0015
767.7,-0.0014
767.6,-0.0013
767.5,-0.0015
767.4,-0.0008
767.3,-0.0011
767.2,-0.0014
767.1,-0.0016
767.0,-0.0019
766.9,-0.0020
766.8,-0.0017
766.7,-0.0015
766.6,-0.0010
766.5,-0.0006
766.4,-0.0014
766.3,-0.0011
766.2,-0.0011
766.1,-0.0014
766.0,-0.0015
765.9,-0.0018
765.8,-0.0015
765.7,-0.0018
765.6,-0.0019
765.5,-0.0013
765.4,-0.0013
765.3,-0.0012
765.2,-0.0008
765.1,-0.0009
765.0,-0.0010
764.9,-0.0012
764.8,-0.0014
764.7,-0.0016
764.6,-0.0018
764.5,-0.0017
764.4,-0.0010
764.3,-0.0013
764.2,-0.0016
764.1,-0.0012
764.0,-0.0011
763.9,-0.0017
763.8,-0.0017
763.7,-0.0015
763.6,-0.0015
763.5,-0.0011
763.4,-0.0010
763.3,-0.0010
763.2,-0.0009
763.1,-0.0012
763.0,-0.0011
762.9,-0.0011
762.8,-0.0007
762.7,-0.0001
762.6,-0.0009
762.5,-0.0009
762.4,-0.0009
762.3,-0.0009
762.2,-0.0006
762.1,-0.0013
762.0,-0.0002
761.9,-0.0003
761.8,-0.0011
761.7,-0.0012
761.6,-0.0008
761.5,-0.0008
761.4,-0.0008
761.3,-0.0011
761.2,-0.0018
761.1,-0.0013
761.0,-0.0007
760.9,-0.0008
760.8,-0.0004
760.7,-0.0008
760.6,-0.0003
760.5,-0.0002
760.4,-0.0005
760.3,-0.0006
760.2,-0.0008
760.1,-0.0010
760.0,-0.0007
759.9,-0.0010
759.8,-0.0013
759.7,-0.0006
759.6,-0.0008
759.5,-0.0011
759.4,-0.0013
759.3,-0.0006
759.2,-0.0004
759.1,-0.0007
759.0,-0.0012
758.9,-0.0009
758.8,-0.0009
758.7,-0.0005
758.6,-0.0004
758.5,-0.0003
758.4,-0.0008
758.3,-0.0007
758.2,-0.0005
758.1,0.0000
758.0,-0.0010
757.9,-0.0015
757.8,-0.0000
757.7,-0.0005
757.6,-0.0010
757.5,-0.0005
757.4,-0.0006
757.3,-0.0016
757.2,0.0000
757.1,-0.0009
757.0,-0.0006
756.9,-0.0005
756.8,-0.0007
756.7,-0.0008
756.6,-0.0005
756.5,0.0001
756.4,-0.0000
756.3,-0.0004
756.2,-0.0011
756.1,-0.0008
756.0,-0.0007
755.9,-0.0003
755.8,-0.0004
755.7,-0.0001
755.6,-0.0008
755.5,0.0003
755.4,-0.0009
755.3,0.0000
755.2,-0.0003
755.1,-0.0010
755.0,-0.0004
754.9,-0.0008
754.8,0.0001
754.7,-0.0001
754.6,0.0003
754.5,0.0006
754.4,-0.0002
754.3,0.0006
754.2,0.0005
754.1,-0.0010
754.0,-0.0008
753.9,-0.0003
753.8,-0.0004
753.7,-0.0005
753.6,-0.0004
753.5,-0.0009
753.4,0.0008
753.3,-0.0007
753.2,-0.0010
753.1,-0.0004
753.0,-0.0004
752.9,-0.0006
752.8,0.0001
752.7,0.0000
752.6,-0.0004
752.5,-0.0009
752.4,0.0002
752.3,0.0004
752.2,-0.0004
752.1,-0.0006
752.0,-0.0007
751.9,-0.0003
751.8,-0.0006
751.7,-0.0010
751.6,-0.0005
751.5,-0.0003
751.4,-0.0012
751.3,-0.0001
751.2,-0.0007
751.1,-0.0006
751.0,-0.0001
750.9,-0.0012
750.8,-0.0010
750.7,-0.0006
750.6,0.0000
750.5,0.0006
750.4,0.0004
750.3,-0.0003
750.2,-0.0004
750.1,-0.0009
750.0,0.0002
749.9,-0.0007
749.8,0.0003
749.7,0.0002
749.6,-0.0000
749.5,0.0004
749.4,0.0002
749.3,0.0002
749.2,0.0000
749.1,-0.0004
749.0,-0.0003
748.9,-0.0003
748.8,-0.0006
748.7,-0.0002
748.6,-0.0003
748.5,-0.0002
748.4,0.0003
748.3,-0.0003
748.2,-0.0009
748.1,-0.0005
748.0,-0.0006
747.9,0.0001
747.8,0.0008
747.7,0.0006
747.6,0.0006
747.5,0.0006
747.4,0.0002
747.3,-0.0001
747.2,0.0000
747.1,0.0006
747.0,0.0000
746.9,-0.0000
746.8,-0.0004
746.7,-0.0005
746.6,-0.0001
746.5,-0.0002
746.4,-0.0008
746.3,-0.0005
746.2,0.0001
746.1,-0.0003
746.0,0.0001
745.9,0.0001
745.8,-0.0002
745.7,-0.0004
745.6,-0.0003
745.5,0.0003
745.4,0.0004
745.3,-0.0000
745.2,0.0002
745.1,0.0006
745.0,0.0005
744.9,-0.0008
744.8,-0.0006
744.7,0.0002
744.6,0.0000
744.5,-0.0007
744.4,-0.0008
744.3,-0.0006
744.2,-0.0005
744.1,-0.0002
744.0,0.0000
743.9,-0.0006
743.8,-0.0006
743.7,0.0003
743.6,-0.0001
743.5,-0.0002
743.4,-0.0001
743.3,0.0002
743.2,0.0005
743.1,0.0004
743.0,-0.0000
742.9,-0.0009
742.8,-0.0011
742.7,-0.0010
742.6,-0.0008
742.5,-0.0005
742.4,-0.0005
742.3,-0.0001
742.2,0.0002
742.1,0.0001
742.0,0.0000
741.9,-0.0003
741.8,-0.0008
741.7,-0.0003
741.6,-0.0001
741.5,-0.0002
741.4,-0.0003
741.3,-0.0003
741.2,0.0002
741.1,0.0002
741.0,0.0001
740.9,0.0004
740.8,0.0008
740.7,0.0004
740.6,0.0001
740.5,0.0004
740.4,0.0002
740.3,0.0004
740.2,0.0004
740.1,-0.0003
740.0,-0.0009
739.9,-0.0003
739.8,0.0004
739.7,-0.0001
739.6,-0.0002
739.5,-0.0005
739.4,-0.0002
739.3,-0.0001
739.2,-0.0007
739.1,-0.0003
739.0,-0.0005
738.9,-0.0002
738.8,0.0006
738.7,0.0002
738.6,-0.0001
738.5,-0.0005
738.4,-0.0002
738.3,0.0002
738.2,0.0003
738.1,0.0001
738.0,-0.0000
737.9,0.0002
737.8,0.0006
737.7,-0.0001
737.6,0.0002
737.5,-0.0000
737.4,-0.0002
737.3,-0.0003
737.2,-0.0001
737.1,-0.0002
737.0,-0.0003
736.9,0.0002
736.8,0.0001
736.7,-0.0004
736.6,-0.0001
736.5,-0.0000
736.4,-0.0001
736.3,-0.0004
736.2,-0.0005
736.1,-0.0011
736.0,0.0002
735.9,0.0001
735.8,-0.0000
735.7,-0.0002
735.6,0.0003
735.5,0.0000
735.4,-0.0011
735.3,-0.0005
735.2,-0.0001
735.1,-0.0006
735.0,-0.0005
734.9,-0.0005
734.8,-0.0002
734.7,0.0003
734.6,-0.0002
734.5,0.0000
734.4,0.0004
734.3,-0.0001
734.2,0.0004
734.1,-0.0005
734.0,-0.0006
733.9,-0.0001
733.8,-0.0002
733.7,-0.0001
733.6,-0.0004
733.5,0.0001
733.4,0.0001
733.3,-0.0003
733.2,-0.0006
733.1,0.0001
733.0,-0.0005
732.9,-0.0004
732.8,-0.0004
732.7,-0.0004
732.6,-0.0005
732.5,0.0002
732.4,-0.0008
732.3,-0.0003
732.2,-0.0001
732.1,-0.0008
732.0,-0.0008
731.9,-0.0005
731.8,0.0003
731.7,0.0000
731.6,0.0006
731.5,-0.0004
731.4,0.0001
731.3,-0.0004
731.2,-0.0003
731.1,-0.0004
731.0,-0.0011
730.9,-0.0005
730.8,0.0002
730.7,-0.0010
730.6,-0.0007
730.5,-0.0002
730.4,0.0004
730.3,-0.0003
730.2,-0.0000
730.1,0.0006
730.0,-0.0001
729.9,-0.0007
729.8,-0.0000
729.7,-0.0005
729.6,0.0002
729.5,0.0003
729.4,-0.0003
729.3,0.0003
729.2,-0.0014
729.1,-0.0010
729.0,0.0005
728.9,-0.0006
728.8,-0.0001
728.7,0.0003
728.6,-0.0003
728.5,0.0001
728.4,-0.0002
728.3,-0.0006
728.2,-0.0000
728.1,0.0003
728.0,-0.0009
727.9,-0.0004
727.8,-0.0006
727.7,0.0003
727.6,0.0001
727.5,0.0003
727.4,0.0000
727.3,0.0000
727.2,0.0000
727.1,-0.0001
727.0,-0.0005
726.9,-0.0002
726.8,-0.0001
726.7,0.0000
726.6,0.0001
726.5,-0.0004
726.4,-0.0003
726.3,0.0003
726.2,-0.0005
726.1,-0.0001
726.0,-0.0008
725.9,-0.0004
725.8,0.0007
725.7,0.0005
725.6,-0.0000
725.5,-0.0005
725.4,-0.0005
725.3,-0.0005
725.2,0.0000
725.1,-0.0000
725.0,0.0001
724.9,-0.0002
724.8,-0.0003
724.7,0.0002
724.6,-0.0003
724.5,0.0002
724.4,0.0001
724.3,-0.0004
724.2,0.0000
724.1,-0.0003
724.0,-0.0006
723.9,-0.0001
723.8,-0.0004
723.7,-0.0006
723.6,0.0000
723.5,-0.0002
723.4,-0.0008
723.3,-0.0002
723.2,0.0001
723.1,0.0001
723.0,0.0003
722.9,0.0003
722.8,-0.0000
722.7,-0.0002
722.6,-0.0003
722.5,-0.0003
722.4,-0.0002
722.3,0.0003
722.2,-0.0002
722.1,0.0003
722.0,0.0001
721.9,-0.0001
721.8,-0.0002
721.7,-0.0003
721.6,-0.0003
721.5,-0.0002
721.4,-0.0001
721.3,0.0001
721.2,0.0003
721.1,0.0001
721.0,0.0005
720.9,0.0005
720.8,0.0003
720.7,-0.0003
720.6,-0.0000
720.5,0.0001
720.4,-0.0002
720.3,-0.0003
720.2,-0.0004
720.1,-0.0003
720.0,-0.0002
719.9,0.0000
719.8,-0.0002
719.7,-0.0001
719.6,0.0004
719.5,0.0006
719.4,0.0005
719.3,0.0002
719.2,-0.0001
719.1,0.0005
719.0,0.0012
718.9,0.0005
718.8,-0.0000
718.7,0.0002
718.6,0.0000
718.5,-0.0000
718.4,0.0000
718.3,0.0001
718.2,0.0002
718.1,0.0000
718.0,-0.0000
717.9,0.0003
717.8,0.0003
717.7,-0.0001
717.6,-0.0001
717.5,0.0000
717.4,0.0001
717.3,-0.0001
717.2,-0.0000
717.1,0.0001
717.0,0.0000
716.9,-0.0001
716.8,0.0004
716.7,0.0006
716.6,0.0003
716.5,0.0004
716.4,0.0003
716.3,0.0001
716.2,0.0003
716.1,0.0003
716.0,0.0002
715.9,0.0006
715.8,0.0004
715.7,0.0004
715.6,0.0001
715.5,0.0008
715.4,0.0008
715.3,0.0000
715.2,0.0005
715.1,0.0004
715.0,0.0003
714.9,0.0003
714.8,0.0006
714.7,0.0007
714.6,0.0008
714.5,0.0002
714.4,0.0004
714.3,0.0007
714.2,0.0006
714.1,0.0004
714.0,0.0006
713.9,0.0001
713.8,0.0007
713.7,0.0006
713.6,0.0006
713.5,0.0010
713.4,0.0007
713.3,0.0007
713.2,0.0007
713.1,0.0006
713.0,0.0003
712.9,0.0010
712.8,0.0005
712.7,0.0009
712.6,0.0006
712.5,0.0008
712.4,0.0010
712.3,0.0012
712.2,0.0008
712.1,0.0009
712.0,0.0011
711.9,0.0010
711.8,0.0014
711.7,0.0009
711.6,0.0010
711.5,0.0010
711.4,0.0011
711.3,0.0011
711.2,0.0016
711.1,0.0017
711.0,0.0016
710.9,0.0017
710.8,0.0012
710.7,0.0012
710.6,0.0011
710.5,0.0010
710.4,0.0011
710.3,0.0013
710.2,0.0012
710.1,0.0013
710.0,0.0015
709.9,0.0013
709.8,0.0015
709.7,0.0017
709.6,0.0018
709.5,0.0013
709.4,0.0008
709.3,0.0018
709.2,0.0011
709.1,0.0017
709.0,0.0026
708.9,0.0016
708.8,0.0009
708.7,0.0013
708.6,0.0011
708.5,0.0015
708.4,0.0010
708.3,0.0015
708.2,0.0010
708.1,0.0009
708.0,0.0012
707.9,0.0013
707.8,0.0012
707.7,0.0016
707.6,0.0017
707.5,0.0017
707.4,0.0017
707.3,0.0020
707.2,0.0020
707.1,0.0013
707.0,0.0017
706.9,0.0017
706.8,0.0013
706.7,0.0017
706.6,0.0013
706.5,0.0014
706.4,0.0017
706.3,0.0012
706.2,0.0016
706.1,0.0016
706.0,0.0024
705.9,0.0026
705.8,0.0009
705.7,0.0015
705.6,0.0021
705.5,0.0020
705.4,0.0017
705.3,0.0022
705.2,0.0022
705.1,0.0015
705.0,0.0024
704.9,0.0023
704.8,0.0025
704.7,0.0023
704.6,0.0017
704.5,0.0016
704.4,0.0018
704.3,0.0020
704.2,0.0014
704.1,0.0013
704.0,0.0015
703.9,0.0017
703.8,0.0026
703.7,0.0023
703.6,0.0020
703.5,0.0019
703.4,0.0016
703.3,0.0016
703.2,0.0018
703.1,0.0021
703.0,0.0019
702.9,0.0018
702.8,0.0015
702.7,0.0020
702.6,0.0018
702.5,0.0016
702.4,0.0018
702.3,0.0019
702.2,0.0018
702.1,0.0019
702.0,0.0021
701.9,0.0020
701.8,0.0021
701.7,0.0025
701.6,0.0024
701.5,0.0022
701.4,0.0022
701.3,0.0020
701.2,0.0017
701.1,0.0028
701.0,0.0020
700.9,0.0019
700.8,0.0017
700.7,0.0016
700.6,0.0024
700.5,0.0029
700.4,0.0019
700.3,0.0028
700.2,0.0030
700.1,0.0020
700.0,0.0024
699.9,0.0018
699.8,0.0022
699.7,0.0022
699.6,0.0020
699.5,0.0022
699.4,0.0023
699.3,0.0021
699.2,0.0019
699.1,0.0016
699.0,0.0016
698.9,0.0017
698.8,0.0018
698.7,0.0021
698.6,0.0025
698.5,0.0025
698.4,0.0020
698.3,0.0020
698.2,0.0023
698.1,0.0021
698.0,0.0024
697.9,0.0024
697.8,0.0020
697.7,0.0022
697.6,0.0022
697.5,0.0025
697.4,0.0023
697.3,0.0017
697.2,0.0017
697.1,0.0019
697.0,0.0022
696.9,0.0022
696.8,0.0027
696.7,0.0023
696.6,0.0019
696.5,0.0024
696.4,0.0022
696.3,0.0018
696.2,0.0017
696.1,0.0017
696.0,0.0022
695.9,0.0023
695.8,0.0018
695.7,0.0020
695.6,0.0024
695.5,0.0023
695.4,0.0023
695.3,0.0021
695.2,0.0021
695.1,0.0021
695.0,0.0019
694.9,0.0019
694.8,0.0021
694.7,0.0026
694.6,0.0026
694.5,0.0024
694.4,0.0023
694.3,0.0025
694.2,0.0021
694.1,0.0017
694.0,0.0021
693.9,0.0020
693.8,0.0019
693.7,0.0019
693.6,0.0019
693.5,0.0019
693.4,0.0023
693.3,0.0026
693.2,0.0026
693.1,0.0026
693.0,0.0026
692.9,0.0024
692.8,0.0022
692.7,0.0020
692.6,0.0021
692.5,0.0023
692.4,0.0023
692.3,0.0018
692.2,0.0020
692.1,0.0026
692.0,0.0023
691.9,0.0020
691.8,0.0021
691.7,0.0023
691.6,0.0024
691.5,0.0026
691.4,0.0028
691.3,0.0023
691.2,0.0023
691.1,0.0021
691.0,0.0023
690.9,0.0022
690.8,0.0026
690.7,0.0029
690.6,0.0027
690.5,0.0027
690.4,0.0024
690.3,0.0026
690.2,0.0029
690.1,0.0026
690.0,0.0027
689.9,0.0025
689.8,0.0030
689.7,0.0028
689.6,0.0022
689.5,0.0025
689.4,0.0032
689.3,0.0035
689.2,0.0030
689.1,0.0025
689.0,0.0023
688.9,0.0029
688.8,0.0032
688.7,0.0030
688.6,0.0028
688.5,0.0034
688.4,0.0031
688.3,0.0030
688.2,0.0033
688.1,0.0029
688.0,0.0021
687.9,0.0025
687.8,0.0024
687.7,0.0033
687.6,0.0033
687.5,0.0028
687.4,0.0025
687.3,0.0030
687.2,0.0029
687.1,0.0031
687.0,0.0025
686.9,0.0026
686.8,0.0029
686.7,0.0032
686.6,0.0028
686.5,0.0028
686.4,0.0031
686.3,0.0035
686.2,0.0030
686.1,0.0025
686.0,0.0030
685.9,0.0030
685.8,0.0027
685.7,0.0029
685.6,0.0035
685.5,0.0031
685.4,0.0029
685.3,0.0037
685.2,0.0027
685.1,0.0026
685.0,0.0036
684.9,0.0034
684.8,0.0030
684.7,0.0040
684.6,0.0031
684.5,0.0034
684.4,0.0035
684.3,0.0039
684.2,0.0040
684.1,0.0035
684.0,0.0036
683.9,0.0034
683.8,0.0039
683.7,0.0033
683.6,0.0032
683.5,0.0035
683.4,0.0029
683.3,0.0031
683.2,0.0037
683.1,0.0039
683.0,0.0043
682.9,0.0034
682.8,0.0036
682.7,0.0031
682.6,0.0037
682.5,0.0031
682.4,0.0033
682.3,0.0029
682.2,0.0025
682.1,0.0037
682.0,0.0037
681.9,0.0034
681.8,0.0031
681.7,0.0035
681.6,0.0037
681.5,0.0035
681.4,0.0030
681.3,0.0035
681.2,0.0037
681.1,0.0036
681.0,0.0035
680.9,0.0036
680.8,0.0027
680.7,0.0032
680.6,0.0031
680.5,0.0040
680.4,0.0035
680.3,0.0040
680.2,0.0039
680.1,0.0038
680.0,0.0036
679.9,0.0046
679.8,0.0035
679.7,0.0039
679.6,0.0036
679.5,0.0036
679.4,0.0038
679.3,0.0037
679.2,0.0035
679.1,0.0038
679.0,0.0039
678.9,0.0041
678.8,0.0039
678.7,0.0042
678.6,0.0037
678.5,0.0044
678.4,0.0042
678.3,0.0036
678.2,0.0029
678.1,0.0039
678.0,0.0043
677.9,0.0037
677.8,0.0040
677.7,0.0042
677.6,0.0042
677.5,0.0041
677.4,0.0043
677.3,0.0041
677.2,0.0040
677.1,0.0038
677.0,0.0043
676.9,0.0041
676.8,0.0040
676.7,0.0040
676.6,0.0041
676.5,0.0044
676.4,0.0042
676.3,0.0043
676.2,0.0047
676.1,0.0047
676.0,0.0042
675.9,0.0044
675.8,0.0044
675.7,0.0040
675.6,0.0045
675.5,0.0043
675.4,0.0042
675.3,0.0040
675.2,0.0041
675.1,0.0040
675.0,0.0041
674.9,0.0040
674.8,0.0044
674.7,0.0046
674.6,0.0046
674.5,0.0045
674.4,0.0042
674.3,0.0045
674.2,0.0050
674.1,0.0048
674.0,0.0047
673.9,0.0047
673.8,0.0044
673.7,0.0043
673.6,0.0043
673.5,0.0046
673.4,0.0045
673.3,0.0043
673.2,0.0044
673.1,0.0045
673.0,0.0046
672.9,0.0048
672.8,0.0050
672.7,0.0047
672.6,0.0047
672.5,0.0047
672.4,0.0050
672.3,0.0048
672.2,0.0049
672.1,0.0048
672.0,0.0047
671.9,0.0050
671.8,0.0048
671.7,0.0046
671.6,0.0049
671.5,0.0054
671.4,0.0051
671.3,0.0048
671.2,0.0051
671.1,0.0054
671.0,0.0055
670.9,0.0050
670.8,0.0050
670.7,0.0054
670.6,0.0053
670.5,0.0046
670.4,0.0045
670.3,0.0049
670.2,0.0052
670.1,0.0052
670.0,0.0050
669.9,0.0056
669.8,0.0057
669.7,0.0052
669.6,0.0049
669.5,0.0051
669.4,0.0055
669.3,0.0056
669.2,0.0054
669.1,0.0056
669.0,0.0058
668.9,0.0058
668.8,0.0058
668.7,0.0053
668.6,0.0057
668.5,0.0058
668.4,0.0054
668.3,0.0055
668.2,0.0051
668.1,0.0056
668.0,0.0058
667.9,0.0059
667.8,0.0059
667.7,0.0054
667.6,0.0055
667.5,0.0056
667.4,0.0058
667.3,0.0054
667.2,0.0057
667.1,0.0058
667.0,0.0056
666.9,0.0057
666.8,0.0056
666.7,0.0053
666.6,0.0054
666.5,0.0057
666.4,0.0056
666.3,0.0058
666.2,0.0058
666.1,0.0059
666.0,0.0057
665.9,0.0057
665.8,0.0058
665.7,0.0059
665.6,0.0059
665.5,0.0059
665.4,0.0060
665.3,0.0058
665.2,0.0056
665.1,0.0052
665.0,0.0061
664.9,0.0056
664.8,0.0057
664.7,0.0063
664.6,0.0058
664.5,0.0058
664.4,0.0057
664.3,0.0055
664.2,0.0058
664.1,0.0059
664.0,0.0059
663.9,0.0054
663.8,0.0056
663.7,0.0058
663.6,0.0057
663.5,0.0056
663.4,0.0061
663.3,0.0063
663.2,0.0057
663.1,0.0054
663.0,0.0057
662.9,0.0056
662.8,0.0058
662.7,0.0060
662.6,0.0056
662.5,0.0058
662.4,0.0055
662.3,0.0066
662.2,0.0061
662.1,0.0060
662.0,0.0059
661.9,0.0057
661.8,0.0057
661.7,0.0060
661.6,0.0056
661.5,0.0063
661.4,0.0058
661.3,0.0060
661.2,0.0060
661.1,0.0065
661.0,0.0059
660.9,0.0057
660.8,0.0054
660.7,0.0051
660.6,0.0059
660.5,0.0061
660.4,0.0058
660.3,0.0059
660.2,0.0056
660.1,0.0053
660.0,0.0055
659.9,0.0055
659.8,0.0060
659.7,0.0058
659.6,0.0057
659.5,0.0050
659.4,0.0057
659.3,0.0058
659.2,0.0059
659.1,0.0060
659.0,0.0050
658.9,0.0055
658.8,0.0063
658.7,0.0055
658.6,0.0056
658.5,0.0059
658.4,0.0058
658.3,0.0057
658.2,0.0057
658.1,0.0059
658.0,0.0054
657.9,0.0055
657.8,0.0055
657.7,0.0058
657.6,0.0053
657.5,0.0055
657.4,0.0051
657.3,0.0057
657.2,0.0054
657.1,0.0055
657.0,0.0053
656.9,0.0049
656.8,0.0055
656.7,0.0056
656.6,0.0053
656.5,0.0051
656.4,0.0057
656.3,0.0056
656.2,0.0049
656.1,0.0052
656.0,0.0052
655.9,0.0051
655.8,0.0051
655.7,0.0049
655.6,0.0052
655.5,0.0054
655.4,0.0053
655.3,0.0049
655.2,0.0048
655.1,0.0048
655.0,0.0052
654.9,0.0048
654.8,0.0051
654.7,0.0047
654.6,0.0050
654.5,0.0050
654.4,0.0053
654.3,0.0050
654.2,0.0051
654.1,0.0048
654.0,0.0052
653.9,0.0048
653.8,0.0049
653.7,0.0049
653.6,0.0048
653.5,0.0047
653.4,0.0049
653.3,0.0047
653.2,0.0050
653.1,0.0050
653.0,0.0047
652.9,0.0050
652.8,0.0043
652.7,0.0047
652.6,0.0047
652.5,0.0044
652.4,0.0047
652.3,0.0049
652.2,0.0047
652.1,0.0047
652.0,0.0048
651.9,0.0046
651.8,0.0044
651.7,0.0049
651.6,0.0045
651.5,0.0045
651.4,0.0045
651.3,0.0049
651.2,0.0047
651.1,0.0045
651.0,0.0047
650.9,0.0048
650.8,0.0045
650.7,0.0045
650.6,0.0046
650.5,0.0048
650.4,0.0048
650.3,0.0045
650.2,0.0043
650.1,0.0047
650.0,0.0046
649.9,0.0042
649.8,0.0045
649.7,0.0044
649.6,0.0044
649.5,0.0045
649.4,0.0042
649.3,0.0043
649.2,0.0044
649.1,0.0041
649.0,0.0039
648.9,0.0035
648.8,0.0039
648.7,0.0044
648.6,0.0045
648.5,0.0042
648.4,0.0041
648.3,0.0043
648.2,0.0045
648.1,0.0046
648.0,0.0046
647.9,0.0046
647.8,0.0043
647.7,0.0041
647.6,0.0041
647.5,0.0042
647.4,0.0041
647.3,0.0039
647.2,0.0041
647.1,0.0041
647.0,0.0040
646.9,0.0039
646.8,0.0039
646.7,0.0037
646.6,0.0037
646.5,0.0037
646.4,0.0040
646.3,0.0038
646.2,0.0035
646.1,0.0039
646.0,0.0041
645.9,0.0037
645.8,0.0037
645.7,0.0037
645.6,0.0037
645.5,0.0041
645.4,0.0042
645.3,0.0039
645.2,0.0039
645.1,0.0040
645.0,0.0040
644.9,0.0041
644.8,0.0043
644.7,0.0041
644.6,0.0041
644.5,0.0040
644.4,0.0036
644.3,0.0036
644.2,0.0040
644.1,0.0040
644.0,0.0038
643.9,0.0036
643.8,0.0039
643.7,0.0036
643.6,0.0036
643.5,0.0040
643.4,0.0039
643.3,0.0041
643.2,0.0042
643.1,0.0038
643.0,0.0037
642.9,0.0035
642.8,0.0032
642.7,0.0036
642.6,0.0032
642.5,0.0039
642.4,0.0039
642.3,0.0038
642.2,0.0038
642.1,0.0039
642.0,0.0037
641.9,0.0041
641.8,0.0042
641.7,0.0043
641.6,0.0038
641.5,0.0038
641.4,0.0034
641.3,0.0037
641.2,0.0038
641.1,0.0037
641.0,0.0036
640.9,0.0038
640.8,0.0036
640.7,0.0033
640.6,0.0037
640.5,0.0039
640.4,0.0038
640.3,0.0038
640.2,0.0037
640.1,0.0036
640.0,0.0035
639.9,0.0030
639.8,0.0032
639.7,0.0033
639.6,0.0035
639.5,0.0032
639.4,0.0040
639.3,0.0036
639.2,0.0037
639.1,0.0031
639.0,0.0031
638.9,0.0035
638.8,0.0033
638.7,0.0039
638.6,0.0041
638.5,0.0032
638.4,0.0037
638.3,0.0037
638.2,0.0034
638.1,0.0039
638.0,0.0036
637.9,0.0037
637.8,0.0031
637.7,0.0036
637.6,0.0032
637.5,0.0039
637.4,0.0037
637.3,0.0035
637.2,0.0035
637.1,0.0043
637.0,0.0034
636.9,0.0033
636.8,0.0033
636.7,0.0036
636.6,0.0034
636.5,0.0036
636.4,0.0036
636.3,0.0036
636.2,0.0034
636.1,0.0035
636.0,0.0035
635.9,0.0032
635.8,0.0032
635.7,0.0039
635.6,0.0029
635.5,0.0032
635.4,0.0034
635.3,0.0032
635.2,0.0034
635.1,0.0030
635.0,0.0036
634.9,0.0032
634.8,0.0032
634.7,0.0032
634.6,0.0033
634.5,0.0034
634.4,0.0035
634.3,0.0037
634.2,0.0035
634.1,0.0032
634.0,0.0030
633.9,0.0029
633.8,0.0034
633.7,0.0036
633.6,0.0037
633.5,0.0042
633.4,0.0033
633.3,0.0035
633.2,0.0031
633.1,0.0031
633.0,0.0036
632.9,0.0036
632.8,0.0038
632.7,0.0034
632.6,0.0034
632.5,0.0030
632.4,0.0034
632.3,0.0036
632.2,0.0033
632.1,0.0032
632.0,0.0032
631.9,0.0034
631.8,0.0031
631.7,0.0026
631.6,0.0033
631.5,0.0034
631.4,0.0035
631.3,0.0035
631.2,0.0032
631.1,0.0034
631.0,0.0032
630.9,0.0031
630.8,0.0035
630.7,0.0032
630.6,0.0036
630.5,0.0030
630.4,0.0035
630.3,0.0032
630.2,0.0030
630.1,0.0035
630.0,0.0035
629.9,0.0033
629.8,0.0034
629.7,0.0038
629.6,0.0033
629.5,0.0036
629.4,0.0037
629.3,0.0033
629.2,0.0034
629.1,0.0036
629.0,0.0034
628.9,0.0033
628.8,0.0032
628.7,0.0037
628.6,0.0034
628.5,0.0031
628.4,0.0032
628.3,0.0032
628.2,0.0031
628.1,0.0035
628.0,0.0033
627.9,0.0031
627.8,0.0034
627.7,0.0032
627.6,0.0030
627.5,0.0033
627.4,0.0029
627.3,0.0034
627.2,0.0038
627.1,0.0036
627.0,0.0033
626.9,0.0032
626.8,0.0031
626.7,0.0032
626.6,0.0032
626.5,0.0032
626.4,0.0033
626.3,0.0033
626.2,0.0031
626.1,0.0028
626.0,0.0029
625.9,0.0031
625.8,0.0032
625.7,0.0029
625.6,0.0029
625.5,0.0032
625.4,0.0030
625.3,0.0028
625.2,0.0030
625.1,0.0029
625.0,0.0026
624.9,0.0029
624.8,0.0033
624.7,0.0033
624.6,0.0031
624.5,0.0032
624.4,0.0032
624.3,0.0031
624.2,0.0031
624.1,0.0031
624.0,0.0032
623.9,0.0034
623.8,0.0034
623.7,0.0031
623.6,0.0031
623.5,0.0032
623.4,0.0034
623.3,0.0033
623.2,0.0031
623.1,0.0033
623.0,0.0033
622.9,0.0032
622.8,0.0034
622.7,0.0030
622.6,0.0025
622.5,0.0027
622.4,0.0030
622.3,0.0032
622.2,0.0028
622.1,0.0028
622.0,0.0032
621.9,0.0031
621.8,0.0033
621.7,0.0035
621.6,0.0033
621.5,0.0028
621.4,0.0029
621.3,0.0032
621.2,0.0033
621.1,0.0033
621.0,0.0032
620.9,0.0034
620.8,0.0032
620.7,0.0032
620.6,0.0032
620.5,0.0032
620.4,0.0032
620.3,0.0031
620.2,0.0030
620.1,0.0030
620.0,0.0032
619.9,0.0030
619.8,0.0030
619.7,0.0028
619.6,0.0028
619.5,0.0029
619.4,0.0031
619.3,0.0033
619.2,0.0031
619.1,0.0029
619.0,0.0030
618.9,0.0031
618.8,0.0025
618.7,0.0029
618.6,0.0028
618.5,0.0030
618.4,0.0027
618.3,0.0028
618.2,0.0028
618.1,0.0029
618.0,0.0030
617.9,0.0026
617.8,0.0027
617.7,0.0027
617.6,0.0027
617.5,0.0026
617.4,0.0026
617.3,0.0028
617.2,0.0026
617.1,0.0027
617.0,0.0029
616.9,0.0025
616.8,0.0023
616.7,0.0027
616.6,0.0023
616.5,0.0025
616.4,0.0025
616.3,0.0026
616.2,0.0026
616.1,0.0028
616.0,0.0024
615.9,0.0022
615.8,0.0027
615.7,0.0024
615.6,0.0025
615.5,0.0028
615.4,0.0032
615.3,0.0027
615.2,0.0025
615.1,0.0028
615.0,0.0026
614.9,0.0023
614.8,0.0028
614.7,0.0026
614.6,0.0026
614.5,0.0024
614.4,0.0030
614.3,0.0026
614.2,0.0024
614.1,0.0026
614.0,0.0030
613.9,0.0025
613.8,0.0022
613.7,0.0025
613.6,0.0024
613.5,0.0022
613.4,0.0028
613.3,0.0023
613.2,0.0030
613.1,0.0024
613.0,0.0019
612.9,0.0029
612.8,0.0025
612.7,0.0027
612.6,0.0023
612.5,0.0027
612.4,0.0021
612.3,0.0021
612.2,0.0027
612.1,0.0021
612.0,0.0021
611.9,0.0028
611.8,0.0027
611.7,0.0022
611.6,0.0021
611.5,0.0019
611.4,0.0019
611.3,0.0020
611.2,0.0018
611.1,0.0019
611.0,0.0018
610.9,0.0027
610.8,0.0021
610.7,0.0020
610.6,0.0023
610.5,0.0022
610.4,0.0021
610.3,0.0020
610.2,0.0019
610.1,0.0018
610.0,0.0019
609.9,0.0018
609.8,0.0017
609.7,0.0019
609.6,0.0015
609.5,0.0014
609.4,0.0014
609.3,0.0016
609.2,0.0018
609.1,0.0015
609.0,0.0018
608.9,0.0017
608.8,0.0017
608.7,0.0017
608.6,0.0016
608.5,0.0017
608.4,0.0013
608.3,0.0017
608.2,0.0019
608.1,0.0015
608.0,0.0015
607.9,0.0013
607.8,0.0011
607.7,0.0011
607.6,0.0011
607.5,0.0014
607.4,0.0013
607.3,0.0011
607.2,0.0009
607.1,0.0012
607.0,0.0014
606.9,0.0014
606.8,0.0015
606.7,0.0014
606.6,0.0012
606.5,0.0015
606.4,0.0013
606.3,0.0013
606.2,0.0014
606.1,0.0014
606.0,0.0014
605.9,0.0011
605.8,0.0011
605.7,0.0008
605.6,0.0009
605.5,0.0008
605.4,0.0011
605.3,0.0009
605.2,0.0012
605.1,0.0013
605.0,0.0014
604.9,0.0013
604.8,0.0012
604.7,0.0013
604.6,0.0011
604.5,0.0009
604.4,0.0007
604.3,0.0007
604.2,0.0009
604.1,0.0008
604.0,0.0008
603.9,0.0006
603.8,0.0008
603.7,0.0004
603.6,0.0005
603.5,0.0007
603.4,0.0009
603.3,0.0005
603.2,0.0004
603.1,0.0005
603.0,0.0003
602.9,0.0001
602.8,0.0000
602.7,0.0005
602.6,0.0008
602.5,0.0006
602.4,0.0006
602.3,0.0004
602.2,0.0004
602.1,0.0005
602.0,0.0004
601.9,0.0002
601.8,0.0002
601.7,0.0004
601.6,0.0002
601.5,0.0002
601.4,0.0003
601.3,0.0001
601.2,-0.0001
601.1,-0.0000
601.0,0.0001
600.9,0.0001
600.8,0.0000
600.7,-0.0001
600.6,-0.0002
600.5,-0.0002
600.4,-0.0003
600.3,-0.0002
600.2,-0.0000
600.1,-0.0001
600.0,0.0000
599.9,0.0004
599.8,-0.0002
599.7,-0.0003
599.6,-0.0001
599.5,-0.0003
599.4,-0.0006
599.3,-0.0005
599.2,-0.0002
599.1,-0.0003
599.0,-0.0003
598.9,-0.0003
598.8,-0.0004
598.7,-0.0006
598.6,-0.0001
598.5,-0.0000
598.4,-0.0003
598.3,-0.0003
598.2,-0.0004
598.1,-0.0003
598.0,-0.0007
597.9,-0.0006
597.8,-0.0007
597.7,-0.0005
597.6,-0.0003
597.5,-0.0003
597.4,-0.0008
597.3,-0.0012
597.2,-0.0010
597.1,-0.0005
597.0,-0.0008
596.9,-0.0010
596.8,-0.0011
596.7,-0.0007
596.6,-0.0008
596.5,-0.0011
596.4,-0.0010
596.3,-0.0011
596.2,-0.0010
596.1,-0.0008
596.0,-0.0010
595.9,-0.0011
595.8,-0.0010
595.7,-0.0008
595.6,-0.0011
595.5,-0.0011
595.4,-0.0011
595.3,-0.0015
595.2,-0.0014
595.1,-0.0011
595.0,-0.0014
594.9,-0.0014
594.8,-0.0013
594.7,-0.0013
594.6,-0.0015
594.5,-0.0015
594.4,-0.0019
594.3,-0.0016
594.2,-0.0017
594.1,-0.0015
594.0,-0.0019
593.9,-0.0019
593.8,-0.0017
593.7,-0.0017
593.6,-0.0019
593.5,-0.0019
593.4,-0.0020
593.3,-0.0020
593.2,-0.0020
593.1,-0.0022
593.0,-0.0021
592.9,-0.0015
592.8,-0.0017
592.7,-0.0017
592.6,-0.0022
592.5,-0.0020
592.4,-0.0019
592.3,-0.0017
592.2,-0.0018
592.1,-0.0016
592.0,-0.0022
591.9,-0.0021
591.8,-0.0024
591.7,-0.0023
591.6,-0.0025
591.5,-0.0022
591.4,-0.0022
591.3,-0.0021
591.2,-0.0023
591.1,-0.0021
591.0,-0.0024
590.9,-0.0024
590.8,-0.0023
590.7,-0.0023
590.6,-0.0020
590.5,-0.0023
590.4,-0.0025
590.3,-0.0028
590.2,-0.0024
590.1,-0.0024
590.0,-0.0025
589.9,-0.0029
589.8,-0.0026
589.7,-0.0022
589.6,-0.0021
589.5,-0.0024
589.4,-0.0024
589.3,-0.0022
589.2,-0.0026
589.1,-0.0023
589.0,-0.0030
588.9,-0.0028
588.8,-0.0024
588.7,-0.0027
588.6,-0.0027
588.5,-0.0032
588.4,-0.0027
588.3,-0.0024
588.2,-0.0030
588.1,-0.0031
588.0,-0.0030
587.9,-0.0028
587.8,-0.0027
587.7,-0.0030
587.6,-0.0029
587.5,-0.0031
587.4,-0.0032
587.3,-0.0034
587.2,-0.0032
587.1,-0.0033
587.0,-0.0033
586.9,-0.0031
586.8,-0.0033
586.7,-0.0035
586.6,-0.0031
586.5,-0.0034
586.4,-0.0032
586.3,-0.0030
586.2,-0.0031
586.1,-0.0033
586.0,-0.0034
585.9,-0.0033
585.8,-0.0036
585.7,-0.0039
585.6,-0.0036
585.5,-0.0035
585.4,-0.0037
585.3,-0.0037
585.2,-0.0035
585.1,-0.0034
585.0,-0.0035
584.9,-0.0036
584.8,-0.0036
584.7,-0.0036
584.6,-0.0038
584.5,-0.0039
584.4,-0.0038
584.3,-0.0037
584.2,-0.0039
584.1,-0.0040
584.0,-0.0039
583.9,-0.0039
583.8,-0.0042
583.7,-0.0043
583.6,-0.0040
583.5,-0.0038
583.4,-0.0040
583.3,-0.0041
583.2,-0.0040
583.1,-0.0042
583.0,-0.0045
582.9,-0.0043
582.8,-0.0043
582.7,-0.0045
582.6,-0.0042
582.5,-0.0045
582.4,-0.0045
582.3,-0.0045
582.2,-0.0047
582.1,-0.0044
582.0,-0.0043
581.9,-0.0042
581.8,-0.0045
581.7,-0.0045
581.6,-0.0049
581.5,-0.0046
581.4,-0.0047
581.3,-0.0047
581.2,-0.0049
581.1,-0.0049
581.0,-0.0047
580.9,-0.0044
580.8,-0.0045
580.7,-0.0045
580.6,-0.0045
580.5,-0.0046
580.4,-0.0047
580.3,-0.0049
580.2,-0.0048
580.1,-0.0047
580.0,-0.0047
