Created as New Dataset,
nm,A
800.0,-0.0003
799.9,-0.0013
799.8,-0.0020
799.7,-0.0016
799.6,-0.0005
799.5,-0.0022
799.4,-0.0010
799.3,-0.0006
799.2,-0.0012
799.1,-0.0033
799.0,0.0000
798.9,-0.0032
798.8,-0.0023
798.7,-0.0010
798.6,-0.0015
798.5,-0.0020
798.4,-0.0008
798.3,-0.0004
798.2,-0.0012
798.1,-0.0010
798.0,-0.0005
797.9,-0.0023
797.8,-0.0010
797.7,-0.0014
797.6,-0.0027
797.5,-0.0022
797.4,-0.0018
797.3,-0.0022
797.2,-0.0006
797.1,-0.0011
797.0,-0.0008
796.9,-0.0028
796.8,-0.0016
796.7,-0.0010
796.6,-0.0010
796.5,-0.0011
796.4,-0.0010
796.3,-0.0022
796.2,-0.0024
796.1,-0.0015
796.0,-0.0017
795.9,-0.0017
795.8,-0.0017
795.7,-0.0010
795.6,-0.0011
795.5,-0.0014
795.4,-0.0025
795.3,-0.0011
795.2,-0.0011
795.1,-0.0010
795.0,-0.0011
794.9,-0.0015
794.8,-0.0017
794.7,-0.0009
794.6,-0.0002
794.5,-0.0009
794.4,-0.0015
794.3,-0.0004
794.2,-0.0015
794.1,-0.0022
794.0,-0.0019
793.9,-0.0013
793.8,-0.0009
793.7,-0.0011
793.6,-0.0013
793.5,-0.0021
793.4,-0.0020
793.3,-0.0011
793.2,-0.0009
793.1,-0.0016
793.0,-0.0021
792.9,-0.0020
792.8,-0.0019
792.7,-0.0012
792.6,-0.0018
792.5,-0.0024
792.4,-0.0021
792.3,-0.0017
792.2,-0.0010
792.1,-0.0012
792.0,-0.0017
791.9,-0.0013
791.8,-0.0014
791.7,-0.0020
791.6,-0.0014
791.5,-0.0016
791.4,-0.0021
791.3,-0.0022
791.2,-0.0012
791.1,-0.0010
791.0,-0.0007
790.9,-0.0016
790.8,-0.0016
790.7,-0.0009
790.6,-0.0013
790.5,-0.0022
790.4,-0.0017
790.3,-0.0010
790.2,-0.0009
790.1,-0.0008
790.0,-0.0014
789.9,-0.0022
789.8,-0.0022
789.7,-0.0019
789.6,-0.0023
789.5,-0.0019
789.4,-0.0013
789.3,-0.0017
789.2,-0.0017
789.1,-0.0007
789.0,-0.0007
788.9,-0.0018
788.8,-0.0016
788.7,-0.0015
788.6,-0.0023
788.5,-0.0023
788.4,-0.0020
788.3,-0.0018
788.2,-0.0021
788.1,-0.0019
788.0,-0.0017
787.9,-0.0018
787.8,-0.0016
787.7,-0.0012
787.6,-0.0016
787.5,-0.0010
787.4,-0.0007
787.3,-0.0010
787.2,-0.0011
787.1,-0.0015
787.0,-0.0012
786.9,-0.0013
786.8,-0.0014
786.7,-0.0014
786.6,-0.0022
786.5,-0.0019
786.4,-0.0013
786.3,-0.0017
786.2,-0.0020
786.1,-0.0023
786.0,-0.0022
785.9,-0.0016
785.8,-0.0018
785.7,-0.0020
785.6,-0.0018
785.5,-0.0017
785.4,-0.0019
785.3,-0.0016
785.2,-0.0020
785.1,-0.0019
785.0,-0.0026
784.9,-0.0013
784.8,-0.0007
784.7,-0.0022
784.6,-0.0021
784.5,-0.0015
784.4,-0.0011
784.3,-0.0010
784.2,-0.0011
784.1,-0.0016
784.0,-0.0013
783.9,-0.0010
783.8,-0.0016
783.7,-0.0015
783.6,-0.0013
783.5,-0.0017
783.4,-0.0014
783.3,-0.0019
783.2,-0.0018
783.1,-0.0014
783.0,-0.0012
782.9,-0.0020
782.8,-0.0021
782.7,-0.0023
782.6,-0.0018
782.5,-0.0017
782.4,-0.0018
782.3,-0.0023
782.2,-0.0020
782.1,-0.0013
782.0,-0.0014
781.9,-0.0011
781.8,-0.0005
781.7,-0.0022
781.6,-0.0021
781.5,-0.0018
781.4,-0.0022
781.3,-0.0014
781.2,-0.0017
781.1,-0.0014
781.0,-0.0024
780.9,-0.0015
780.8,-0.0024
780.7,-0.0021
780.6,-0.0011
780.5,-0.0014
780.4,-0.0019
780.3,-0.0019
780.2,-0.0021
780.1,-0.0019
780.0,-0.0018
779.9,-0.0012
779.8,-0.0015
779.7,-0.0023
779.6,-0.0019
779.5,-0.0017
779.4,-0.0015
779.3,-0.0017
779.2,-0.0015
779.1,-0.0014
779.0,-0.0019
778.9,-0.0004
778.8,-0.0019
778.7,-0.0016
778.6,-0.0017
778.5,-0.0021
778.4,-0.0021
778.3,-0.0020
778.2,-0.0016
778.1,-0.0017
778.0,-0.0014
777.9,-0.0011
777.8,-0.0019
777.7,-0.0023
777.6,-0.0009
777.5,-0.0014
777.4,-0.0009
777.3,-0.0017
777.2,-0.0012
777.1,-0.0006
777.0,-0.0007
776.9,-0.0005
776.8,-0.0022
776.7,-0.0010
776.6,-0.0005
776.5,-0.0012
776.4,-0.0017
776.3,-0.0012
776.2,-0.0014
776.1,-0.0022
776.0,-0.0024
775.9,-0.0014
775.8,-0.0006
775.7,-0.0015
775.6,-0.0030
775.5,-0.0021
775.4,-0.0017
775.3,-0.0005
775.2,-0.0010
775.1,-0.0017
775.0,-0.0015
774.9,-0.0012
774.8,-0.0021
774.7,-0.0017
774.6,-0.0002
774.5,-0.0006
774.4,-0.0018
774.3,-0.0007
774.2,-0.0018
774.1,-0.0013
774.0,-0.0020
773.9,-0.0016
773.8,-0.0013
773.7,-0.0014
773.6,-0.0013
773.5,-0.0017
773.4,-0.0008
773.3,-0.0006
773.2,-0.0008
773.1,-0.0013
773.0,-0.0015
772.9,-0.0014
772.8,-0.0015
772.7,-0.0011
772.6,-0.0011
772.5,-0.0010
772.4,-0.0013
772.3,-0.0010
772.2,-0.0018
772.1,-0.0012
772.0,-0.0016
771.9,-0.0024
771.8,-0.0015
771.7,-0.0018
771.6,-0.0020
771.5,-0.0008
771.4,-0.0014
771.3,-0.0019
771.2,-0.0024
771.1,-0.0012
771.0,-0.0016
770.9,-0.0020
770.8,-0.0016
770.7,-0.0013
770.6,-0.0013
770.5,-0.0016
770.4,-0.0022
770.3,-0.0021
770.2,-0.0014
770.1,-0.0007
770.0,0.0003
769.9,-0.0006
769.8,-0.0010
769.7,-0.0014
769.6,-0.0021
769.5,-0.0016
769.4,-0.0017
769.3,-0.0019
769.2,-0.0012
769.1,-0.0006
769.0,-0.0008
768.9,-0.0013
768.8,-0.0008
768.7,-0.0005
768.6,-0.0012
768.5,-0.0012
768.4,-0.0011
768.3,-0.0004
768.2,-0.0011
768.1,-0.0011
768.0,-0.0007
767.9,-0.0012
767.8,-0.0013
767.7,-0.0007
767.6,-0.0008
767.5,-0.0007
767.4,-0.0002
767.3,-0.0009
767.2,-0.0012
767.1,-0.0008
767.0,-0.0010
766.9,-0.0005
766.8,-0.0009
766.7,-0.0015
766.6,-0.0009
766.5,-0.0006
766.4,-0.0007
766.3,-0.0007
766.2,-0.0013
766.1,-0.0014
766.0,-0.0012
765.9,-0.0012
765.8,-0.0010
765.7,-0.0008
765.6,-0.0012
765.5,-0.0009
765.4,-0.0004
765.3,-0.0004
765.2,-0.0003
765.1,-0.0004
765.0,-0.0005
764.9,-0.0003
764.8,-0.0007
764.7,-0.0011
764.6,-0.0009
764.5,-0.0009
764.4,-0.0009
764.3,-0.0006
764.2,-0.0007
764.1,-0.0011
764.0,-0.0008
763.9,-0.0010
763.8,-0.0010
763.7,-0.0010
763.6,-0.0014
763.5,-0.0008
763.4,-0.0007
763.3,-0.0006
763.2,-0.0006
763.1,-0.0005
763.0,-0.0006
762.9,-0.0008
762.8,-0.0003
762.7,0.0001
762.6,-0.0006
762.5,-0.0007
762.4,-0.0001
762.3,-0.0002
762.2,-0.0000
762.1,-0.0001
762.0,0.0002
761.9,0.0006
761.8,0.0002
761.7,-0.0005
761.6,-0.0002
761.5,-0.0004
761.4,-0.0004
761.3,-0.0001
761.2,-0.0005
761.1,-0.0006
761.0,-0.0003
760.9,0.0002
760.8,-0.0001
760.7,-0.0007
760.6,0.0000
760.5,-0.0001
760.4,-0.0005
760.3,-0.0002
760.2,-0.0008
760.1,-0.0004
760.0,0.0002
759.9,-0.0008
759.8,-0.0006
759.7,-0.0000
759.6,-0.0002
759.5,-0.0000
759.4,-0.0011
759.3,-0.0003
759.2,0.0001
759.1,0.0003
759.0,-0.0006
758.9,-0.0003
758.8,0.0000
758.7,0.0004
758.6,0.0005
758.5,0.0005
758.4,-0.0005
758.3,-0.0012
758.2,0.0000
758.1,0.0006
758.0,0.0002
757.9,-0.0005
757.8,0.0007
757.7,-0.0007
757.6,-0.0004
757.5,0.0004
757.4,0.0000
757.3,-0.0001
757.2,0.0008
757.1,-0.0008
757.0,-0.0005
756.9,-0.0001
756.8,-0.0002
756.7,-0.0003
756.6,0.0014
756.5,0.0007
756.4,0.0006
756.3,-0.0001
756.2,-0.0007
756.1,-0.0004
756.0,-0.0005
755.9,-0.0006
755.8,0.0001
755.7,-0.0000
755.6,0.0000
755.5,0.0006
755.4,-0.0010
755.3,0.0002
755.2,-0.0002
755.1,-0.0003
755.0,-0.0002
754.9,-0.0001
754.8,0.0006
754.7,0.0001
754.6,0.0001
754.5,0.0002
754.4,-0.0000
754.3,0.0004
754.2,0.0002
754.1,-0.0003
754.0,0.0002
753.9,-0.0006
753.8,-0.0005
753.7,0.0005
753.6,-0.0007
753.5,-0.0004
753.4,0.0007
753.3,-0.0003
753.2,0.0000
753.1,0.0000
753.0,0.0002
752.9,0.0003
752.8,0.0004
752.7,0.0003
752.6,-0.0005
752.5,0.0001
752.4,0.0001
752.3,0.0016
752.2,0.0000
752.1,0.0003
752.0,-0.0002
751.9,0.0000
751.8,-0.0001
751.7,-0.0010
751.6,0.0000
751.5,-0.0005
751.4,-0.0004
751.3,0.0005
751.2,-0.0004
751.1,-0.0005
751.0,0.0007
750.9,0.0000
750.8,0.0006
750.7,-0.0001
750.6,0.0001
750.5,0.0003
750.4,0.0001
750.3,0.0001
750.2,-0.0005
750.1,-0.0009
750.0,-0.0000
749.9,0.0007
749.8,0.0010
749.7,-0.0001
749.6,0.0001
749.5,0.0008
749.4,0.0001
749.3,0.0005
749.2,0.0002
749.1,0.0002
749.0,0.0008
748.9,0.0004
748.8,-0.0005
748.7,0.0004
748.6,0.0004
748.5,0.0005
748.4,0.0003
748.3,0.0001
748.2,-0.0003
748.1,0.0003
748.0,-0.0001
747.9,0.0003
747.8,0.0007
747.7,0.0002
747.6,0.0015
747.5,0.0012
747.4,0.0008
747.3,0.0004
747.2,0.0007
747.1,0.0006
747.0,0.0006
746.9,0.0006
746.8,0.0004
746.7,0.0002
746.6,0.0006
746.5,0.0005
746.4,-0.0004
746.3,-0.0002
746.2,0.0008
746.1,0.0001
746.0,-0.0001
745.9,0.0006
745.8,-0.0001
745.7,-0.0001
745.6,0.0005
745.5,0.0005
745.4,0.0007
745.3,0.0002
745.2,-0.0000
745.1,0.0000
745.0,0.0002
744.9,0.0000
744.8,-0.0002
744.7,0.0007
744.6,0.0007
744.5,-0.0000
744.4,0.0000
744.3,0.0003
744.2,0.0002
744.1,0.0000
744.0,0.0001
743.9,0.0000
743.8,-0.0001
743.7,0.0006
743.6,0.0001
743.5,0.0003
743.4,0.0003
743.3,0.0006
743.2,0.0008
743.1,0.0006
743.0,0.0003
742.9,-0.0004
742.8,-0.0002
742.7,0.0002
742.6,0.0001
742.5,0.0000
742.4,-0.0001
742.3,0.0007
742.2,0.0010
742.1,0.0006
742.0,0.0004
741.9,0.0004
741.8,0.0005
741.7,0.0007
741.6,0.0003
741.5,0.0006
741.4,0.0004
741.3,0.0004
741.2,0.0008
741.1,0.0005
741.0,0.0009
740.9,0.0009
740.8,0.0004
740.7,0.0007
740.6,0.0008
740.5,0.0012
740.4,0.0012
740.3,0.0009
740.2,0.0008
740.1,0.0006
740.0,0.0001
739.9,0.0003
739.8,0.0005
739.7,0.0001
739.6,0.0005
739.5,0.0003
739.4,0.0003
739.3,0.0001
739.2,-0.0001
739.1,0.0004
739.0,0.0000
738.9,0.0003
738.8,0.0005
738.7,0.0004
738.6,0.0005
738.5,0.0006
738.4,0.0008
738.3,0.0009
738.2,0.0003
738.1,0.0004
738.0,0.0007
737.9,0.0011
737.8,0.0007
737.7,0.0007
737.6,0.0007
737.5,0.0003
737.4,-0.0003
737.3,-0.0002
737.2,0.0000
737.1,0.0000
737.0,0.0001
736.9,0.0002
736.8,0.0004
736.7,0.0007
736.6,0.0006
736.5,0.0004
736.4,0.0007
736.3,-0.0001
736.2,0.0002
736.1,0.0001
736.0,0.0005
735.9,0.0001
735.8,-0.0001
735.7,-0.0001
735.6,0.0007
735.5,0.0003
735.4,-0.0000
735.3,0.0002
735.2,0.0007
735.1,0.0003
735.0,0.0000
734.9,-0.0004
734.8,0.0010
734.7,0.0007
734.6,-0.0002
734.5,0.0008
734.4,0.0005
734.3,-0.0000
734.2,0.0009
734.1,0.0005
734.0,-0.0004
733.9,0.0002
733.8,0.0006
733.7,0.0003
733.6,0.0002
733.5,0.0003
733.4,0.0011
733.3,-0.0003
733.2,-0.0007
733.1,0.0001
733.0,-0.0003
732.9,0.0003
732.8,-0.0003
732.7,-0.0002
732.6,0.0005
732.5,0.0005
732.4,-0.0005
732.3,0.0002
732.2,0.0003
732.1,0.0003
732.0,0.0006
731.9,-0.0003
731.8,0.0010
731.7,0.0009
731.6,0.0007
731.5,0.0008
731.4,0.0007
731.3,-0.0004
731.2,0.0005
731.1,0.0007
731.0,-0.0006
730.9,-0.0004
730.8,0.0005
730.7,0.0003
730.6,-0.0008
730.5,0.0003
730.4,0.0006
730.3,0.0000
730.2,0.0002
730.1,0.0009
730.0,-0.0003
729.9,-0.0004
729.8,0.0004
729.7,-0.0008
729.6,0.0005
729.5,0.0010
729.4,0.0004
729.3,0.0005
729.2,-0.0009
729.1,-0.0006
729.0,-0.0002
728.9,0.0000
728.8,0.0003
728.7,0.0006
728.6,0.0006
728.5,0.0010
728.4,0.0006
728.3,-0.0002
728.2,0.0000
728.1,0.0010
728.0,-0.0001
727.9,-0.0000
727.8,-0.0002
727.7,0.0004
727.6,0.0002
727.5,0.0012
727.4,0.0006
727.3,0.0008
727.2,0.0002
727.1,0.0006
727.0,0.0003
726.9,0.0003
726.8,-0.0001
726.7,0.0008
726.6,0.0002
726.5,0.0001
726.4,0.0008
726.3,0.0010
726.2,0.0001
726.1,0.0013
726.0,0.0006
725.9,0.0005
725.8,0.0006
725.7,0.0006
725.6,-0.0000
725.5,0.0002
725.4,0.0006
725.3,0.0007
725.2,0.0004
725.1,0.0003
725.0,0.0005
724.9,0.0001
724.8,0.0002
724.7,0.0004
724.6,0.0009
724.5,0.0008
724.4,-0.0001
724.3,0.0000
724.2,0.0009
724.1,0.0010
724.0,0.0001
723.9,0.0002
723.8,0.0006
723.7,0.0004
723.6,0.0001
723.5,0.0006
723.4,-0.0004
723.3,0.0008
723.2,0.0005
723.1,0.0008
723.0,0.0009
722.9,0.0009
722.8,0.0003
722.7,0.0001
722.6,0.0005
722.5,0.0003
722.4,0.0003
722.3,0.0003
722.2,-0.0003
722.1,0.0002
722.0,0.0002
721.9,0.0001
721.8,0.0006
721.7,0.0005
721.6,0.0002
721.5,0.0004
721.4,0.0002
721.3,0.0002
721.2,0.0006
721.1,0.0007
721.0,0.0006
720.9,0.0006
720.8,0.0005
720.7,0.0005
720.6,0.0008
720.5,0.0009
720.4,0.0007
720.3,0.0007
720.2,0.0004
720.1,0.0002
720.0,0.0003
719.9,0.0009
719.8,0.0009
719.7,0.0008
719.6,0.0010
719.5,0.0009
719.4,0.0008
719.3,0.0004
719.2,0.0002
719.1,0.0005
719.0,0.0009
718.9,0.0006
718.8,0.0007
718.7,0.0012
718.6,0.0012
718.5,0.0010
718.4,0.0008
718.3,0.0009
718.2,0.0009
718.1,0.0004
718.0,0.0003
717.9,0.0011
717.8,0.0007
717.7,0.0003
717.6,0.0003
717.5,0.0003
717.4,0.0005
717.3,0.0005
717.2,0.0004
717.1,0.0008
717.0,0.0012
716.9,0.0008
716.8,0.0011
716.7,0.0014
716.6,0.0012
716.5,0.0009
716.4,0.0007
716.3,0.0005
716.2,0.0007
716.1,0.0009
716.0,0.0010
715.9,0.0013
715.8,0.0008
715.7,0.0009
715.6,0.0004
715.5,0.0012
715.4,0.0015
715.3,0.0011
715.2,0.0010
715.1,0.0010
715.0,0.0012
714.9,0.0011
714.8,0.0010
714.7,0.0014
714.6,0.0012
714.5,0.0007
714.4,0.0012
714.3,0.0017
714.2,0.0015
714.1,0.0013
714.0,0.0010
713.9,0.0008
713.8,0.0011
713.7,0.0011
713.6,0.0010
713.5,0.0010
713.4,0.0012
713.3,0.0012
713.2,0.0011
713.1,0.0018
713.0,0.0014
712.9,0.0015
712.8,0.0012
712.7,0.0017
712.6,0.0011
712.5,0.0013
712.4,0.0017
712.3,0.0013
712.2,0.0017
712.1,0.0015
712.0,0.0019
711.9,0.0017
711.8,0.0013
711.7,0.0011
711.6,0.0011
711.5,0.0019
711.4,0.0014
711.3,0.0014
711.2,0.0020
711.1,0.0016
711.0,0.0021
710.9,0.0022
710.8,0.0013
710.7,0.0018
710.6,0.0022
710.5,0.0019
710.4,0.0017
710.3,0.0018
710.2,0.0019
710.1,0.0023
710.0,0.0017
709.9,0.0018
709.8,0.0023
709.7,0.0020
709.6,0.0018
709.5,0.0011
709.4,0.0019
709.3,0.0025
709.2,0.0020
709.1,0.0017
709.0,0.0027
708.9,0.0018
708.8,0.0015
708.7,0.0016
708.6,0.0022
708.5,0.0022
708.4,0.0018
708.3,0.0018
708.2,0.0013
708.1,0.0016
708.0,0.0025
707.9,0.0019
707.8,0.0014
707.7,0.0024
707.6,0.0022
707.5,0.0019
707.4,0.0020
707.3,0.0024
707.2,0.0017
707.1,0.0018
707.0,0.0025
706.9,0.0021
706.8,0.0020
706.7,0.0026
706.6,0.0020
706.5,0.0019
706.4,0.0021
706.3,0.0022
706.2,0.0024
706.1,0.0022
706.0,0.0031
705.9,0.0030
705.8,0.0014
705.7,0.0021
705.6,0.0028
705.5,0.0029
705.4,0.0026
705.3,0.0030
705.2,0.0026
705.1,0.0018
705.0,0.0026
704.9,0.0023
704.8,0.0029
704.7,0.0019
704.6,0.0017
704.5,0.0021
704.4,0.0021
704.3,0.0025
704.2,0.0024
704.1,0.0021
704.0,0.0027
703.9,0.0026
703.8,0.0029
703.7,0.0023
703.6,0.0024
703.5,0.0023
703.4,0.0023
703.3,0.0024
703.2,0.0026
703.1,0.0022
703.0,0.0025
702.9,0.0025
702.8,0.0018
702.7,0.0021
702.6,0.0019
702.5,0.0025
702.4,0.0025
702.3,0.0029
702.2,0.0029
702.1,0.0027
702.0,0.0032
701.9,0.0028
701.8,0.0027
701.7,0.0030
701.6,0.0031
701.5,0.0030
701.4,0.0027
701.3,0.0026
701.2,0.0022
701.1,0.0028
701.0,0.0025
700.9,0.0025
700.8,0.0027
700.7,0.0025
700.6,0.0031
700.5,0.0035
700.4,0.0027
700.3,0.0030
700.2,0.0026
700.1,0.0027
700.0,0.0028
699.9,0.0028
699.8,0.0027
699.7,0.0028
699.6,0.0026
699.5,0.0027
699.4,0.0027
699.3,0.0019
699.2,0.0023
699.1,0.0028
699.0,0.0028
698.9,0.0025
698.8,0.0027
698.7,0.0027
698.6,0.0026
698.5,0.0028
698.4,0.0026
698.3,0.0024
698.2,0.0024
698.1,0.0023
698.0,0.0030
697.9,0.0030
697.8,0.0025
697.7,0.0023
697.6,0.0023
697.5,0.0028
697.4,0.0031
697.3,0.0028
697.2,0.0024
697.1,0.0025
697.0,0.0026
696.9,0.0030
696.8,0.0033
696.7,0.0027
696.6,0.0027
696.5,0.0029
696.4,0.0026
696.3,0.0022
696.2,0.0024
696.1,0.0023
696.0,0.0024
695.9,0.0029
695.8,0.0026
695.7,0.0025
695.6,0.0031
695.5,0.0032
695.4,0.0029
695.3,0.0023
695.2,0.0022
695.1,0.0025
695.0,0.0027
694.9,0.0025
694.8,0.0025
694.7,0.0026
694.6,0.0025
694.5,0.0023
694.4,0.0024
694.3,0.0024
694.2,0.0022
694.1,0.0020
694.0,0.0026
693.9,0.0029
693.8,0.0027
693.7,0.0023
693.6,0.0027
693.5,0.0027
693.4,0.0029
693.3,0.0033
693.2,0.0032
693.1,0.0031
693.0,0.0030
692.9,0.0031
692.8,0.0029
692.7,0.0028
692.6,0.0028
692.5,0.0029
692.4,0.0032
692.3,0.0025
692.2,0.0027
692.1,0.0030
692.0,0.0031
691.9,0.0031
691.8,0.0028
691.7,0.0032
691.6,0.0032
691.5,0.0027
691.4,0.0027
691.3,0.0029
691.2,0.0030
691.1,0.0033
691.0,0.0033
690.9,0.0032
690.8,0.0032
690.7,0.0034
690.6,0.0032
690.5,0.0031
690.4,0.0030
690.3,0.0031
690.2,0.0039
690.1,0.0032
690.0,0.0033
689.9,0.0032
689.8,0.0035
689.7,0.0030
689.6,0.0031
689.5,0.0031
689.4,0.0042
689.3,0.0040
689.2,0.0036
689.1,0.0031
689.0,0.0031
688.9,0.0034
688.8,0.0038
688.7,0.0034
688.6,0.0035
688.5,0.0036
688.4,0.0035
688.3,0.0039
688.2,0.0042
688.1,0.0037
688.0,0.0029
687.9,0.0027
687.8,0.0029
687.7,0.0035
687.6,0.0040
687.5,0.0038
687.4,0.0034
687.3,0.0034
687.2,0.0036
687.1,0.0032
687.0,0.0029
686.9,0.0036
686.8,0.0033
686.7,0.0039
686.6,0.0035
686.5,0.0033
686.4,0.0037
686.3,0.0039
686.2,0.0041
686.1,0.0036
686.0,0.0039
685.9,0.0037
685.8,0.0035
685.7,0.0039
685.6,0.0038
685.5,0.0045
685.4,0.0039
685.3,0.0043
685.2,0.0037
685.1,0.0034
685.0,0.0035
684.9,0.0039
684.8,0.0039
684.7,0.0040
684.6,0.0037
684.5,0.0037
684.4,0.0038
684.3,0.0048
684.2,0.0044
684.1,0.0044
684.0,0.0036
683.9,0.0038
683.8,0.0038
683.7,0.0032
683.6,0.0037
683.5,0.0044
683.4,0.0038
683.3,0.0040
683.2,0.0040
683.1,0.0043
683.0,0.0046
682.9,0.0043
682.8,0.0043
682.7,0.0034
682.6,0.0039
682.5,0.0037
682.4,0.0043
682.3,0.0041
682.2,0.0032
682.1,0.0042
682.0,0.0045
681.9,0.0042
681.8,0.0037
681.7,0.0042
681.6,0.0040
681.5,0.0041
681.4,0.0036
681.3,0.0036
681.2,0.0037
681.1,0.0040
681.0,0.0039
680.9,0.0045
680.8,0.0040
680.7,0.0037
680.6,0.0036
680.5,0.0041
680.4,0.0035
680.3,0.0037
680.2,0.0036
680.1,0.0046
680.0,0.0044
679.9,0.0044
679.8,0.0042
679.7,0.0043
679.6,0.0043
679.5,0.0042
679.4,0.0042
679.3,0.0046
679.2,0.0046
679.1,0.0043
679.0,0.0044
678.9,0.0046
678.8,0.0047
678.7,0.0043
678.6,0.0039
678.5,0.0049
678.4,0.0041
678.3,0.0043
678.2,0.0044
678.1,0.0049
678.0,0.0043
677.9,0.0045
677.8,0.0046
677.7,0.0042
677.6,0.0048
677.5,0.0048
677.4,0.0048
677.3,0.0045
677.2,0.0049
677.1,0.0045
677.0,0.0043
676.9,0.0045
676.8,0.0045
676.7,0.0045
676.6,0.0045
676.5,0.0054
676.4,0.0050
676.3,0.0047
676.2,0.0047
676.1,0.0048
676.0,0.0051
675.9,0.0049
675.8,0.0048
675.7,0.0048
675.6,0.0051
675.5,0.0050
675.4,0.0048
675.3,0.0049
675.2,0.0048
675.1,0.0043
675.0,0.0045
674.9,0.0049
674.8,0.0052
674.7,0.0053
674.6,0.0051
674.5,0.0050
674.4,0.0048
674.3,0.0052
674.2,0.0050
674.1,0.0048
674.0,0.0051
673.9,0.0052
673.8,0.0053
673.7,0.0053
673.6,0.0052
673.5,0.0050
673.4,0.0050
673.3,0.0049
673.2,0.0049
673.1,0.0054
673.0,0.0055
672.9,0.0054
672.8,0.0054
672.7,0.0054
672.6,0.0053
672.5,0.0054
672.4,0.0058
672.3,0.0055
672.2,0.0055
672.1,0.0051
672.0,0.0049
671.9,0.0055
671.8,0.0056
671.7,0.0053
671.6,0.0055
671.5,0.0058
671.4,0.0057
671.3,0.0060
671.2,0.0060
671.1,0.0056
671.0,0.0055
670.9,0.0056
670.8,0.0056
670.7,0.0057
670.6,0.0059
670.5,0.0056
670.4,0.0059
670.3,0.0063
670.2,0.0061
670.1,0.0058
670.0,0.0058
669.9,0.0059
669.8,0.0058
669.7,0.0056
669.6,0.0057
669.5,0.0059
669.4,0.0058
669.3,0.0056
669.2,0.0061
669.1,0.0063
669.0,0.0061
668.9,0.0062
668.8,0.0062
668.7,0.0062
668.6,0.0060
668.5,0.0060
668.4,0.0058
668.3,0.0060
668.2,0.0055
668.1,0.0064
668.0,0.0062
667.9,0.0062
667.8,0.0063
667.7,0.0062
667.6,0.0061
667.5,0.0060
667.4,0.0065
667.3,0.0063
667.2,0.0065
667.1,0.0058
667.0,0.0059
666.9,0.0061
666.8,0.0061
666.7,0.0063
666.6,0.0064
666.5,0.0065
666.4,0.0062
666.3,0.0064
666.2,0.0064
666.1,0.0062
666.0,0.0062
665.9,0.0062
665.8,0.0064
665.7,0.0064
665.6,0.0067
665.5,0.0065
665.4,0.0066
665.3,0.0064
665.2,0.0062
665.1,0.0061
665.0,0.0068
664.9,0.0065
664.8,0.0063
664.7,0.0064
664.6,0.0060
664.5,0.0059
664.4,0.0060
664.3,0.0064
664.2,0.0068
664.1,0.0060
664.0,0.0061
663.9,0.0066
663.8,0.0062
663.7,0.0063
663.6,0.0064
663.5,0.0063
663.4,0.0066
663.3,0.0063
663.2,0.0065
663.1,0.0063
663.0,0.0067
662.9,0.0063
662.8,0.0062
662.7,0.0069
662.6,0.0064
662.5,0.0066
662.4,0.0062
662.3,0.0069
662.2,0.0066
662.1,0.0061
662.0,0.0067
661.9,0.0066
661.8,0.0061
661.7,0.0064
661.6,0.0061
661.5,0.0062
661.4,0.0063
661.3,0.0062
661.2,0.0063
661.1,0.0070
661.0,0.0064
660.9,0.0060
660.8,0.0058
660.7,0.0056
660.6,0.0066
660.5,0.0066
660.4,0.0062
660.3,0.0068
660.2,0.0059
660.1,0.0064
660.0,0.0063
659.9,0.0063
659.8,0.0067
659.7,0.0065
659.6,0.0058
659.5,0.0059
659.4,0.0058
659.3,0.0064
659.2,0.0061
659.1,0.0062
659.0,0.0057
658.9,0.0060
658.8,0.0063
658.7,0.0057
658.6,0.0063
658.5,0.0065
658.4,0.0063
658.3,0.0065
658.2,0.0062
658.1,0.0060
658.0,0.0059
657.9,0.0067
657.8,0.0064
657.7,0.0058
657.6,0.0057
657.5,0.0059
657.4,0.0056
657.3,0.0058
657.2,0.0056
657.1,0.0058
657.0,0.0056
656.9,0.0056
656.8,0.0059
656.7,0.0061
656.6,0.0059
656.5,0.0059
656.4,0.0057
656.3,0.0063
656.2,0.0059
656.1,0.0059
656.0,0.0057
655.9,0.0054
655.8,0.0057
655.7,0.0055
655.6,0.0059
655.5,0.0060
655.4,0.0057
655.3,0.0057
655.2,0.0054
655.1,0.0051
655.0,0.0057
654.9,0.0057
654.8,0.0060
654.7,0.0055
654.6,0.0055
654.5,0.0053
654.4,0.0058
654.3,0.0056
654.2,0.0056
654.1,0.0056
654.0,0.0055
653.9,0.0053
653.8,0.0056
653.7,0.0049
653.6,0.0049
653.5,0.0056
653.4,0.0054
653.3,0.0049
653.2,0.0054
653.1,0.0055
653.0,0.0054
652.9,0.0053
652.8,0.0048
652.7,0.0049
652.6,0.0048
652.5,0.0049
652.4,0.0054
652.3,0.0057
652.2,0.0056
652.1,0.0049
652.0,0.0049
651.9,0.0051
651.8,0.0049
651.7,0.0051
651.6,0.0050
651.5,0.0054
651.4,0.0054
651.3,0.0057
651.2,0.0053
651.1,0.0053
651.0,0.0054
650.9,0.0051
650.8,0.0051
650.7,0.0052
650.6,0.0054
650.5,0.0055
650.4,0.0057
650.3,0.0053
650.2,0.0053
650.1,0.0057
650.0,0.0052
649.9,0.0046
649.8,0.0047
649.7,0.0049
649.6,0.0045
649.5,0.0045
649.4,0.0044
649.3,0.0047
649.2,0.0047
649.1,0.0045
649.0,0.0045
648.9,0.0045
648.8,0.0048
648.7,0.0049
648.6,0.0048
648.5,0.0045
648.4,0.0045
648.3,0.0047
648.2,0.0049
648.1,0.0049
648.0,0.0049
647.9,0.0051
647.8,0.0050
647.7,0.0048
647.6,0.0048
647.5,0.0045
647.4,0.0043
647.3,0.0046
647.2,0.0048
647.1,0.0047
647.0,0.0048
646.9,0.0047
646.8,0.0046
646.7,0.0046
646.6,0.0043
646.5,0.0042
646.4,0.0048
646.3,0.0045
646.2,0.0043
646.1,0.0046
646.0,0.0046
645.9,0.0046
645.8,0.0045
645.7,0.0044
645.6,0.0042
645.5,0.0043
645.4,0.0044
645.3,0.0047
645.2,0.0048
645.1,0.0046
645.0,0.0046
644.9,0.0048
644.8,0.0046
644.7,0.0045
644.6,0.0046
644.5,0.0044
644.4,0.0045
644.3,0.0045
644.2,0.0047
644.1,0.0046
644.0,0.0044
643.9,0.0039
643.8,0.0040
643.7,0.0040
643.6,0.0042
643.5,0.0044
643.4,0.0041
643.3,0.0045
643.2,0.0043
643.1,0.0044
643.0,0.0043
642.9,0.0040
642.8,0.0043
642.7,0.0044
642.6,0.0039
642.5,0.0042
642.4,0.0043
642.3,0.0042
642.2,0.0040
642.1,0.0046
642.0,0.0041
641.9,0.0047
641.8,0.0045
641.7,0.0046
641.6,0.0040
641.5,0.0044
641.4,0.0041
641.3,0.0044
641.2,0.0044
641.1,0.0046
641.0,0.0042
640.9,0.0045
640.8,0.0042
640.7,0.0040
640.6,0.0041
640.5,0.0045
640.4,0.0041
640.3,0.0039
640.2,0.0041
640.1,0.0041
640.0,0.0040
639.9,0.0033
639.8,0.0038
639.7,0.0037
639.6,0.0042
639.5,0.0038
639.4,0.0043
639.3,0.0038
639.2,0.0042
639.1,0.0042
639.0,0.0043
638.9,0.0045
638.8,0.0046
638.7,0.0041
638.6,0.0045
638.5,0.0036
638.4,0.0046
638.3,0.0042
638.2,0.0037
638.1,0.0039
638.0,0.0041
637.9,0.0044
637.8,0.0041
637.7,0.0045
637.6,0.0041
637.5,0.0043
637.4,0.0043
637.3,0.0044
637.2,0.0041
637.1,0.0044
637.0,0.0042
636.9,0.0042
636.8,0.0044
636.7,0.0039
636.6,0.0043
636.5,0.0038
636.4,0.0038
636.3,0.0039
636.2,0.0045
636.1,0.0041
636.0,0.0037
635.9,0.0039
635.8,0.0040
635.7,0.0042
635.6,0.0039
635.5,0.0038
635.4,0.0038
635.3,0.0037
635.2,0.0041
635.1,0.0036
635.0,0.0042
634.9,0.0041
634.8,0.0037
634.7,0.0043
634.6,0.0041
634.5,0.0043
634.4,0.0042
634.3,0.0044
634.2,0.0040
634.1,0.0040
634.0,0.0038
633.9,0.0035
633.8,0.0041
633.7,0.0043
633.6,0.0042
633.5,0.0041
633.4,0.0038
633.3,0.0040
633.2,0.0040
633.1,0.0034
633.0,0.0038
632.9,0.0038
632.8,0.0044
632.7,0.0037
632.6,0.0039
632.5,0.0036
632.4,0.0043
632.3,0.0043
632.2,0.0036
632.1,0.0038
632.0,0.0037
631.9,0.0042
631.8,0.0037
631.7,0.0035
631.6,0.0041
631.5,0.0042
631.4,0.0042
631.3,0.0038
631.2,0.0035
631.1,0.0036
631.0,0.0036
630.9,0.0035
630.8,0.0039
630.7,0.0036
630.6,0.0040
630.5,0.0036
630.4,0.0036
630.3,0.0039
630.2,0.0039
630.1,0.0042
630.0,0.0040
629.9,0.0038
629.8,0.0037
629.7,0.0041
629.6,0.0037
629.5,0.0037
629.4,0.0038
629.3,0.0035
629.2,0.0042
629.1,0.0041
629.0,0.0038
628.9,0.0040
628.8,0.0038
628.7,0.0040
628.6,0.0039
628.5,0.0037
628.4,0.0039
628.3,0.0034
628.2,0.0033
628.1,0.0039
628.0,0.0042
627.9,0.0042
627.8,0.0042
627.7,0.0038
627.6,0.0038
627.5,0.0039
627.4,0.0036
627.3,0.0039
627.2,0.0042
627.1,0.0039
627.0,0.0035
626.9,0.0035
626.8,0.0036
626.7,0.0039
626.6,0.0035
626.5,0.0036
626.4,0.0037
626.3,0.0041
626.2,0.0038
626.1,0.0034
626.0,0.0037
625.9,0.0041
625.8,0.0039
625.7,0.0035
625.6,0.0037
625.5,0.0039
625.4,0.0038
625.3,0.0035
625.2,0.0035
625.1,0.0034
625.0,0.0032
624.9,0.0035
624.8,0.0039
624.7,0.0038
624.6,0.0039
624.5,0.0040
624.4,0.0040
624.3,0.0036
624.2,0.0034
624.1,0.0036
624.0,0.0038
623.9,0.0038
623.8,0.0038
623.7,0.0038
623.6,0.0037
623.5,0.0035
623.4,0.0037
623.3,0.0038
623.2,0.0039
623.1,0.0039
623.0,0.0036
622.9,0.0034
622.8,0.0038
622.7,0.0036
622.6,0.0032
622.5,0.0035
622.4,0.0036
622.3,0.0035
622.2,0.0033
622.1,0.0036
622.0,0.0037
621.9,0.0035
621.8,0.0038
621.7,0.0039
621.6,0.0036
621.5,0.0035
621.4,0.0035
621.3,0.0035
621.2,0.0036
621.1,0.0037
621.0,0.0036
620.9,0.0040
620.8,0.0037
620.7,0.0037
620.6,0.0035
620.5,0.0039
620.4,0.0038
620.3,0.0037
620.2,0.0036
620.1,0.0036
620.0,0.0035
619.9,0.0035
619.8,0.0037
619.7,0.0032
619.6,0.0034
619.5,0.0031
619.4,0.0038
619.3,0.0039
619.2,0.0037
619.1,0.0035
619.0,0.0036
618.9,0.0038
618.8,0.0035
618.7,0.0035
618.6,0.0035
618.5,0.0035
618.4,0.0032
618.3,0.0032
618.2,0.0033
618.1,0.0032
618.0,0.0033
617.9,0.0033
617.8,0.0032
617.7,0.0032
617.6,0.0033
617.5,0.0033
617.4,0.0031
617.3,0.0035
617.2,0.0031
617.1,0.0032
617.0,0.0033
616.9,0.0031
616.8,0.0031
616.7,0.0034
616.6,0.0029
616.5,0.0031
616.4,0.0029
616.3,0.0031
616.2,0.0033
616.1,0.0033
616.0,0.0030
615.9,0.0030
615.8,0.0028
615.7,0.0031
615.6,0.0033
615.5,0.0033
615.4,0.0036
615.3,0.0033
615.2,0.0030
615.1,0.0035
615.0,0.0028
614.9,0.0027
614.8,0.0031
614.7,0.0033
614.6,0.0028
614.5,0.0029
614.4,0.0034
614.3,0.0028
614.2,0.0034
614.1,0.0026
614.0,0.0032
613.9,0.0035
613.8,0.0031
613.7,0.0031
613.6,0.0027
613.5,0.0029
613.4,0.0034
613.3,0.0028
613.2,0.0034
613.1,0.0029
613.0,0.0029
612.9,0.0031
612.8,0.0029
612.7,0.0030
612.6,0.0028
612.5,0.0034
612.4,0.0021
612.3,0.0023
612.2,0.0032
612.1,0.0028
612.0,0.0029
611.9,0.0029
611.8,0.0027
611.7,0.0030
611.6,0.0024
611.5,0.0026
611.4,0.0029
611.3,0.0029
611.2,0.0024
611.1,0.0028
611.0,0.0028
610.9,0.0031
610.8,0.0023
610.7,0.0026
610.6,0.0028
610.5,0.0028
610.4,0.0024
610.3,0.0022
610.2,0.0029
610.1,0.0023
610.0,0.0025
609.9,0.0022
609.8,0.0023
609.7,0.0024
609.6,0.0023
609.5,0.0022
609.4,0.0020
609.3,0.0024
609.2,0.0024
609.1,0.0023
609.0,0.0025
608.9,0.0025
608.8,0.0024
608.7,0.0021
608.6,0.0019
608.5,0.0022
608.4,0.0022
608.3,0.0024
608.2,0.0024
608.1,0.0021
608.0,0.0023
607.9,0.0020
607.8,0.0015
607.7,0.0015
607.6,0.0020
607.5,0.0018
607.4,0.0018
607.3,0.0017
607.2,0.0016
607.1,0.0018
607.0,0.0020
606.9,0.0020
606.8,0.0019
606.7,0.0020
606.6,0.0014
606.5,0.0014
606.4,0.0019
606.3,0.0021
606.2,0.0017
606.1,0.0018
606.0,0.0020
605.9,0.0017
605.8,0.0015
605.7,0.0016
605.6,0.0015
605.5,0.0017
605.4,0.0020
605.3,0.0018
605.2,0.0019
605.1,0.0015
605.0,0.0015
604.9,0.0015
604.8,0.0014
604.7,0.0014
604.6,0.0016
604.5,0.0014
604.4,0.0014
604.3,0.0013
604.2,0.0014
604.1,0.0010
604.0,0.0010
603.9,0.0015
603.8,0.0015
603.7,0.0013
603.6,0.0015
603.5,0.0011
603.4,0.0010
603.3,0.0007
603.2,0.0008
603.1,0.0011
603.0,0.0011
602.9,0.0010
602.8,0.0006
602.7,0.0008
602.6,0.0012
602.5,0.0013
602.4,0.0012
602.3,0.0009
602.2,0.0007
602.1,0.0005
602.0,0.0007
601.9,0.0008
601.8,0.0008
601.7,0.0010
601.6,0.0009
601.5,0.0006
601.4,0.0006
601.3,0.0007
601.2,0.0005
601.1,0.0003
601.0,0.0003
600.9,0.0004
600.8,0.0006
600.7,0.0008
600.6,0.0008
600.5,0.0006
600.4,0.0004
600.3,0.0004
600.2,0.0004
600.1,0.0001
600.0,0.0003
599.9,0.0005
599.8,0.0003
599.7,0.0002
599.6,0.0002
599.5,0.0002
599.4,0.0001
599.3,0.0001
599.2,0.0002
599.1,0.0003
599.0,0.0002
598.9,0.0000
598.8,0.0002
598.7,0.0001
598.6,0.0003
598.5,0.0005
598.4,0.0002
598.3,0.0002
598.2,0.0003
598.1,0.0002
598.0,-0.0000
597.9,-0.0000
597.8,-0.0003
597.7,-0.0000
597.6,0.0000
597.5,0.0000
597.4,-0.0001
597.3,-0.0002
597.2,-0.0002
597.1,-0.0003
597.0,-0.0003
596.9,-0.0004
596.8,-0.0006
596.7,-0.0002
596.6,-0.0003
596.5,-0.0005
596.4,-0.0004
596.3,-0.0006
596.2,-0.0004
596.1,-0.0002
596.0,-0.0006
595.9,-0.0006
595.8,-0.0006
595.7,-0.0006
595.6,-0.0006
595.5,-0.0006
595.4,-0.0004
595.3,-0.0007
595.2,-0.0008
595.1,-0.0008
595.0,-0.0007
594.9,-0.0008
594.8,-0.0004
594.7,-0.0004
594.6,-0.0006
594.5,-0.0008
594.4,-0.0007
594.3,-0.0007
594.2,-0.0012
594.1,-0.0010
594.0,-0.0011
593.9,-0.0010
593.8,-0.0009
593.7,-0.0006
593.6,-0.0011
593.5,-0.0013
593.4,-0.0016
593.3,-0.0011
593.2,-0.0009
593.1,-0.0009
593.0,-0.0013
592.9,-0.0012
592.8,-0.0010
592.7,-0.0011
592.6,-0.0010
592.5,-0.0010
592.4,-0.0013
592.3,-0.0011
592.2,-0.0012
592.1,-0.0011
592.0,-0.0010
591.9,-0.0014
591.8,-0.0016
591.7,-0.0016
591.6,-0.0017
591.5,-0.0015
591.4,-0.0017
591.3,-0.0015
591.2,-0.0016
591.1,-0.0016
591.0,-0.0021
590.9,-0.0019
590.8,-0.0018
590.7,-0.0020
590.6,-0.0017
590.5,-0.0022
590.4,-0.0018
590.3,-0.0018
590.2,-0.0016
590.1,-0.0019
590.0,-0.0017
589.9,-0.0020
589.8,-0.0019
589.7,-0.0019
589.6,-0.0021
589.5,-0.0020
589.4,-0.0017
589.3,-0.0018
589.2,-0.0023
589.1,-0.0021
589.0,-0.0023
588.9,-0.0023
588.8,-0.0023
588.7,-0.0018
588.6,-0.0021
588.5,-0.0023
588.4,-0.0023
588.3,-0.0020
588.2,-0.0029
588.1,-0.0027
588.0,-0.0019
587.9,-0.0026
587.8,-0.0022
587.7,-0.0026
587.6,-0.0026
587.5,-0.0022
587.4,-0.0026
587.3,-0.0025
587.2,-0.0027
587.1,-0.0029
587.0,-0.0031
586.9,-0.0027
586.8,-0.0029
586.7,-0.0027
586.6,-0.0026
586.5,-0.0028
586.4,-0.0026
586.3,-0.0029
586.2,-0.0030
586.1,-0.0029
586.0,-0.0030
585.9,-0.0030
585.8,-0.0035
585.7,-0.0034
585.6,-0.0031
585.5,-0.0031
585.4,-0.0035
585.3,-0.0034
585.2,-0.0032
585.1,-0.0030
585.0,-0.0028
584.9,-0.0035
584.8,-0.0030
584.7,-0.0029
584.6,-0.0032
584.5,-0.0031
584.4,-0.0031
584.3,-0.0033
584.2,-0.0034
584.1,-0.0033
584.0,-0.0037
583.9,-0.0036
583.8,-0.0038
583.7,-0.0037
583.6,-0.0037
583.5,-0.0035
583.4,-0.0033
583.3,-0.0036
583.2,-0.0035
583.1,-0.0036
583.0,-0.0037
582.9,-0.0036
582.8,-0.0036
582.7,-0.0037
582.6,-0.0037
582.5,-0.0039
582.4,-0.0040
582.3,-0.0041
582.2,-0.0040
582.1,-0.0040
582.0,-0.0036
581.9,-0.0037
581.8,-0.0040
581.7,-0.0040
581.6,-0.0042
581.5,-0.0037
581.4,-0.0039
581.3,-0.0038
581.2,-0.0041
581.1,-0.0040
581.0,-0.0038
580.9,-0.0037
580.8,-0.0038
580.7,-0.0040
580.6,-0.0042
580.5,-0.0043
580.4,-0.0043
580.3,-0.0043
580.2,-0.0042
580.1,-0.0043
580.0,-0.0040
