Created as New Dataset,
nm,A
800.0,0.0045
799.9,0.0037
799.8,0.0042
799.7,0.0044
799.6,0.0035
799.5,0.0036
799.4,0.0038
799.3,0.0047
799.2,0.0038
799.1,0.0024
799.0,0.0037
798.9,0.0013
798.8,0.0038
798.7,0.0045
798.6,0.0038
798.5,0.0030
798.4,0.0050
798.3,0.0042
798.2,0.0043
798.1,0.0042
798.0,0.0032
797.9,0.0034
797.8,0.0052
797.7,0.0038
797.6,0.0042
797.5,0.0027
797.4,0.0040
797.3,0.0035
797.2,0.0050
797.1,0.0047
797.0,0.0046
796.9,0.0027
796.8,0.0039
796.7,0.0043
796.6,0.0045
796.5,0.0046
796.4,0.0048
796.3,0.0033
796.2,0.0037
796.1,0.0044
796.0,0.0044
795.9,0.0042
795.8,0.0050
795.7,0.0041
795.6,0.0038
795.5,0.0032
795.4,0.0032
795.3,0.0048
795.2,0.0045
795.1,0.0046
795.0,0.0043
794.9,0.0040
794.8,0.0039
794.7,0.0039
794.6,0.0042
794.5,0.0041
794.4,0.0044
794.3,0.0048
794.2,0.0043
794.1,0.0040
794.0,0.0037
793.9,0.0049
793.8,0.0048
793.7,0.0039
793.6,0.0042
793.5,0.0041
793.4,0.0025
793.3,0.0037
793.2,0.0042
793.1,0.0043
793.0,0.0038
792.9,0.0039
792.8,0.0034
792.7,0.0027
792.6,0.0038
792.5,0.0041
792.4,0.0037
792.3,0.0040
792.2,0.0051
792.1,0.0050
792.0,0.0041
791.9,0.0040
791.8,0.0042
791.7,0.0040
791.6,0.0040
791.5,0.0034
791.4,0.0035
791.3,0.0037
791.2,0.0046
791.1,0.0047
791.0,0.0044
790.9,0.0041
790.8,0.0046
790.7,0.0054
790.6,0.0053
790.5,0.0044
790.4,0.0037
790.3,0.0047
790.2,0.0052
790.1,0.0041
790.0,0.0040
789.9,0.0043
789.8,0.0041
789.7,0.0037
789.6,0.0033
789.5,0.0041
789.4,0.0043
789.3,0.0039
789.2,0.0037
789.1,0.0046
789.0,0.0050
788.9,0.0037
788.8,0.0036
788.7,0.0042
788.6,0.0045
788.5,0.0046
788.4,0.0043
788.3,0.0043
788.2,0.0038
788.1,0.0037
788.0,0.0046
787.9,0.0042
787.8,0.0043
787.7,0.0051
787.6,0.0040
787.5,0.0037
787.4,0.0047
787.3,0.0042
787.2,0.0043
787.1,0.0042
787.0,0.0043
786.9,0.0048
786.8,0.0047
786.7,0.0043
786.6,0.0039
786.5,0.0043
786.4,0.0044
786.3,0.0038
786.2,0.0041
786.1,0.0043
786.0,0.0040
785.9,0.0041
785.8,0.0041
785.7,0.0038
785.6,0.0041
785.5,0.0045
785.4,0.0044
785.3,0.0040
785.2,0.0038
785.1,0.0037
785.0,0.0034
784.9,0.0038
784.8,0.0050
784.7,0.0038
784.6,0.0037
784.5,0.0042
784.4,0.0044
784.3,0.0044
784.2,0.0041
784.1,0.0049
784.0,0.0046
783.9,0.0043
783.8,0.0044
783.7,0.0040
783.6,0.0035
783.5,0.0040
783.4,0.0043
783.3,0.0042
783.2,0.0045
783.1,0.0044
783.0,0.0046
782.9,0.0036
782.8,0.0045
782.7,0.0042
782.6,0.0045
782.5,0.0047
782.4,0.0043
782.3,0.0045
782.2,0.0049
782.1,0.0044
782.0,0.0053
781.9,0.0050
781.8,0.0048
781.7,0.0039
781.6,0.0032
781.5,0.0032
781.4,0.0039
781.3,0.0045
781.2,0.0033
781.1,0.0044
781.0,0.0035
780.9,0.0042
780.8,0.0043
780.7,0.0040
780.6,0.0049
780.5,0.0049
780.4,0.0045
780.3,0.0032
780.2,0.0043
780.1,0.0054
780.0,0.0044
779.9,0.0047
779.8,0.0043
779.7,0.0035
779.6,0.0034
779.5,0.0040
779.4,0.0043
779.3,0.0039
779.2,0.0048
779.1,0.0046
779.0,0.0043
778.9,0.0041
778.8,0.0050
778.7,0.0045
778.6,0.0032
778.5,0.0037
778.4,0.0039
778.3,0.0043
778.2,0.0046
778.1,0.0045
778.0,0.0039
777.9,0.0044
777.8,0.0041
777.7,0.0040
777.6,0.0047
777.5,0.0048
777.4,0.0053
777.3,0.0053
777.2,0.0043
777.1,0.0050
777.0,0.0050
776.9,0.0061
776.8,0.0041
776.7,0.0048
776.6,0.0053
776.5,0.0044
776.4,0.0043
776.3,0.0044
776.2,0.0032
776.1,0.0035
776.0,0.0041
775.9,0.0042
775.8,0.0058
775.7,0.0047
775.6,0.0038
775.5,0.0040
775.4,0.0046
775.3,0.0057
775.2,0.0055
775.1,0.0049
775.0,0.0038
774.9,0.0051
774.8,0.0038
774.7,0.0048
774.6,0.0056
774.5,0.0058
774.4,0.0040
774.3,0.0047
774.2,0.0049
774.1,0.0052
774.0,0.0050
773.9,0.0040
773.8,0.0047
773.7,0.0051
773.6,0.0040
773.5,0.0038
773.4,0.0042
773.3,0.0056
773.2,0.0054
773.1,0.0054
773.0,0.0037
772.9,0.0047
772.8,0.0051
772.7,0.0044
772.6,0.0044
772.5,0.0044
772.4,0.0046
772.3,0.0051
772.2,0.0043
772.1,0.0045
772.0,0.0046
771.9,0.0045
771.8,0.0047
771.7,0.0048
771.6,0.0044
771.5,0.0044
771.4,0.0039
771.3,0.0042
771.2,0.0041
771.1,0.0045
771.0,0.0044
770.9,0.0038
770.8,0.0048
770.7,0.0048
770.6,0.0046
770.5,0.0044
770.4,0.0043
770.3,0.0042
770.2,0.0044
770.1,0.0053
770.0,0.0052
769.9,0.0046
769.8,0.0050
769.7,0.0045
769.6,0.0038
769.5,0.0048
769.4,0.0058
769.3,0.0047
769.2,0.0043
769.1,0.0050
769.0,0.0054
768.9,0.0052
768.8,0.0057
768.7,0.0050
768.6,0.0046
768.5,0.0046
768.4,0.0040
768.3,0.0047
768.2,0.0050
768.1,0.0052
768.0,0.0055
767.9,0.0049
767.8,0.0046
767.7,0.0053
767.6,0.0050
767.5,0.0047
767.4,0.0052
767.3,0.0047
767.2,0.0046
767.1,0.0043
767.0,0.0033
766.9,0.0037
766.8,0.0046
766.7,0.0042
766.6,0.0044
766.5,0.0049
766.4,0.0049
766.3,0.0050
766.2,0.0047
766.1,0.0041
766.0,0.0044
765.9,0.0050
765.8,0.0052
765.7,0.0053
765.6,0.0049
765.5,0.0050
765.4,0.0054
765.3,0.0050
765.2,0.0049
765.1,0.0049
765.0,0.0046
764.9,0.0045
764.8,0.0050
764.7,0.0051
764.6,0.0044
764.5,0.0044
764.4,0.0047
764.3,0.0046
764.2,0.0042
764.1,0.0042
764.0,0.0044
763.9,0.0046
763.8,0.0051
763.7,0.0049
763.6,0.0044
763.5,0.0050
763.4,0.0051
763.3,0.0049
763.2,0.0044
763.1,0.0045
763.0,0.0050
762.9,0.0048
762.8,0.0050
762.7,0.0056
762.6,0.0051
762.5,0.0051
762.4,0.0056
762.3,0.0054
762.2,0.0054
762.1,0.0049
762.0,0.0053
761.9,0.0053
761.8,0.0045
761.7,0.0045
761.6,0.0050
761.5,0.0053
761.4,0.0054
761.3,0.0054
761.2,0.0049
761.1,0.0046
761.0,0.0054
760.9,0.0049
760.8,0.0049
760.7,0.0048
760.6,0.0055
760.5,0.0048
760.4,0.0050
760.3,0.0052
760.2,0.0044
760.1,0.0049
760.0,0.0053
759.9,0.0048
759.8,0.0052
759.7,0.0058
759.6,0.0052
759.5,0.0053
759.4,0.0050
759.3,0.0056
759.2,0.0045
759.1,0.0048
759.0,0.0044
758.9,0.0048
758.8,0.0048
758.7,0.0050
758.6,0.0045
758.5,0.0051
758.4,0.0054
758.3,0.0050
758.2,0.0052
758.1,0.0053
758.0,0.0055
757.9,0.0054
757.8,0.0058
757.7,0.0046
757.6,0.0047
757.5,0.0052
757.4,0.0054
757.3,0.0039
757.2,0.0053
757.1,0.0044
757.0,0.0047
756.9,0.0053
756.8,0.0052
756.7,0.0048
756.6,0.0057
756.5,0.0056
756.4,0.0046
756.3,0.0047
756.2,0.0059
756.1,0.0050
756.0,0.0052
755.9,0.0047
755.8,0.0054
755.7,0.0048
755.6,0.0058
755.5,0.0060
755.4,0.0049
755.3,0.0052
755.2,0.0052
755.1,0.0042
755.0,0.0048
754.9,0.0048
754.8,0.0052
754.7,0.0050
754.6,0.0053
754.5,0.0052
754.4,0.0045
754.3,0.0055
754.2,0.0057
754.1,0.0056
754.0,0.0052
753.9,0.0056
753.8,0.0044
753.7,0.0057
753.6,0.0052
753.5,0.0048
753.4,0.0062
753.3,0.0044
753.2,0.0052
753.1,0.0047
753.0,0.0053
752.9,0.0050
752.8,0.0058
752.7,0.0049
752.6,0.0055
752.5,0.0055
752.4,0.0057
752.3,0.0061
752.2,0.0050
752.1,0.0056
752.0,0.0047
751.9,0.0056
751.8,0.0046
751.7,0.0043
751.6,0.0048
751.5,0.0050
751.4,0.0053
751.3,0.0053
751.2,0.0050
751.1,0.0053
751.0,0.0052
750.9,0.0047
750.8,0.0051
750.7,0.0047
750.6,0.0051
750.5,0.0054
750.4,0.0064
750.3,0.0049
750.2,0.0042
750.1,0.0046
750.0,0.0054
749.9,0.0054
749.8,0.0057
749.7,0.0051
749.6,0.0055
749.5,0.0054
749.4,0.0056
749.3,0.0054
749.2,0.0060
749.1,0.0050
749.0,0.0047
748.9,0.0047
748.8,0.0049
748.7,0.0052
748.6,0.0050
748.5,0.0049
748.4,0.0050
748.3,0.0050
748.2,0.0055
748.1,0.0049
748.0,0.0054
747.9,0.0050
747.8,0.0060
747.7,0.0058
747.6,0.0065
747.5,0.0061
747.4,0.0058
747.3,0.0050
747.2,0.0052
747.1,0.0057
747.0,0.0056
746.9,0.0056
746.8,0.0055
746.7,0.0054
746.6,0.0052
746.5,0.0048
746.4,0.0048
746.3,0.0052
746.2,0.0057
746.1,0.0056
746.0,0.0054
745.9,0.0055
745.8,0.0053
745.7,0.0054
745.6,0.0059
745.5,0.0054
745.4,0.0054
745.3,0.0053
745.2,0.0051
745.1,0.0048
745.0,0.0054
744.9,0.0051
744.8,0.0049
744.7,0.0056
744.6,0.0055
744.5,0.0055
744.4,0.0055
744.3,0.0051
744.2,0.0050
744.1,0.0053
744.0,0.0050
743.9,0.0051
743.8,0.0057
743.7,0.0058
743.6,0.0054
743.5,0.0052
743.4,0.0053
743.3,0.0058
743.2,0.0057
743.1,0.0050
743.0,0.0053
742.9,0.0049
742.8,0.0045
742.7,0.0049
742.6,0.0050
742.5,0.0054
742.4,0.0057
742.3,0.0058
742.2,0.0062
742.1,0.0055
742.0,0.0052
741.9,0.0053
741.8,0.0051
741.7,0.0055
741.6,0.0056
741.5,0.0056
741.4,0.0057
741.3,0.0059
741.2,0.0060
741.1,0.0056
741.0,0.0056
740.9,0.0057
740.8,0.0051
740.7,0.0052
740.6,0.0058
740.5,0.0060
740.4,0.0058
740.3,0.0061
740.2,0.0061
740.1,0.0060
740.0,0.0053
739.9,0.0050
739.8,0.0058
739.7,0.0062
739.6,0.0061
739.5,0.0056
739.4,0.0054
739.3,0.0056
739.2,0.0056
739.1,0.0056
739.0,0.0055
738.9,0.0055
738.8,0.0062
738.7,0.0058
738.6,0.0053
738.5,0.0050
738.4,0.0051
738.3,0.0058
738.2,0.0058
738.1,0.0060
738.0,0.0056
737.9,0.0053
737.8,0.0055
737.7,0.0053
737.6,0.0054
737.5,0.0057
737.4,0.0060
737.3,0.0057
737.2,0.0055
737.1,0.0055
737.0,0.0059
736.9,0.0055
736.8,0.0054
736.7,0.0056
736.6,0.0060
736.5,0.0060
736.4,0.0059
736.3,0.0056
736.2,0.0055
736.1,0.0053
736.0,0.0056
735.9,0.0058
735.8,0.0064
735.7,0.0064
735.6,0.0061
735.5,0.0053
735.4,0.0055
735.3,0.0054
735.2,0.0058
735.1,0.0055
735.0,0.0056
734.9,0.0053
734.8,0.0059
734.7,0.0062
734.6,0.0057
734.5,0.0062
734.4,0.0068
734.3,0.0060
734.2,0.0061
734.1,0.0050
734.0,0.0055
733.9,0.0057
733.8,0.0055
733.7,0.0060
733.6,0.0056
733.5,0.0054
733.4,0.0059
733.3,0.0053
733.2,0.0054
733.1,0.0059
733.0,0.0058
732.9,0.0057
732.8,0.0053
732.7,0.0060
732.6,0.0059
732.5,0.0063
732.4,0.0055
732.3,0.0060
732.2,0.0058
732.1,0.0057
732.0,0.0053
731.9,0.0060
731.8,0.0066
731.7,0.0063
731.6,0.0061
731.5,0.0067
731.4,0.0059
731.3,0.0056
731.2,0.0059
731.1,0.0058
731.0,0.0054
730.9,0.0050
730.8,0.0057
730.7,0.0054
730.6,0.0049
730.5,0.0054
730.4,0.0060
730.3,0.0057
730.2,0.0056
730.1,0.0070
730.0,0.0063
729.9,0.0054
729.8,0.0060
729.7,0.0062
729.6,0.0062
729.5,0.0062
729.4,0.0055
729.3,0.0060
729.2,0.0054
729.1,0.0050
729.0,0.0061
728.9,0.0057
728.8,0.0059
728.7,0.0059
728.6,0.0060
728.5,0.0056
728.4,0.0062
728.3,0.0060
728.2,0.0056
728.1,0.0067
728.0,0.0058
727.9,0.0056
727.8,0.0049
727.7,0.0059
727.6,0.0064
727.5,0.0061
727.4,0.0055
727.3,0.0068
727.2,0.0059
727.1,0.0062
727.0,0.0056
726.9,0.0058
726.8,0.0054
726.7,0.0064
726.6,0.0061
726.5,0.0051
726.4,0.0059
726.3,0.0063
726.2,0.0061
726.1,0.0064
726.0,0.0062
725.9,0.0063
725.8,0.0069
725.7,0.0065
725.6,0.0059
725.5,0.0057
725.4,0.0058
725.3,0.0057
725.2,0.0066
725.1,0.0065
725.0,0.0063
724.9,0.0058
724.8,0.0057
724.7,0.0059
724.6,0.0054
724.5,0.0052
724.4,0.0057
724.3,0.0059
724.2,0.0067
724.1,0.0068
724.0,0.0056
723.9,0.0061
723.8,0.0061
723.7,0.0059
723.6,0.0060
723.5,0.0061
723.4,0.0054
723.3,0.0060
723.2,0.0060
723.1,0.0064
723.0,0.0063
722.9,0.0063
722.8,0.0061
722.7,0.0060
722.6,0.0062
722.5,0.0065
722.4,0.0061
722.3,0.0061
722.2,0.0061
722.1,0.0062
722.0,0.0066
721.9,0.0065
721.8,0.0064
721.7,0.0063
721.6,0.0062
721.5,0.0059
721.4,0.0058
721.3,0.0058
721.2,0.0060
721.1,0.0060
721.0,0.0065
720.9,0.0063
720.8,0.0061
720.7,0.0061
720.6,0.0062
720.5,0.0062
720.4,0.0062
720.3,0.0063
720.2,0.0061
720.1,0.0061
720.0,0.0059
719.9,0.0064
719.8,0.0062
719.7,0.0065
719.6,0.0072
719.5,0.0069
719.4,0.0069
719.3,0.0068
719.2,0.0065
719.1,0.0064
719.0,0.0065
718.9,0.0063
718.8,0.0065
718.7,0.0069
718.6,0.0066
718.5,0.0068
718.4,0.0066
718.3,0.0059
718.2,0.0058
718.1,0.0058
718.0,0.0060
717.9,0.0064
717.8,0.0064
717.7,0.0060
717.6,0.0062
717.5,0.0060
717.4,0.0057
717.3,0.0056
717.2,0.0058
717.1,0.0065
717.0,0.0069
716.9,0.0066
716.8,0.0067
716.7,0.0065
716.6,0.0059
716.5,0.0059
716.4,0.0059
716.3,0.0056
716.2,0.0062
716.1,0.0061
716.0,0.0061
715.9,0.0066
715.8,0.0065
715.7,0.0068
715.6,0.0065
715.5,0.0067
715.4,0.0066
715.3,0.0063
715.2,0.0063
715.1,0.0063
715.0,0.0066
714.9,0.0063
714.8,0.0062
714.7,0.0062
714.6,0.0060
714.5,0.0065
714.4,0.0064
714.3,0.0066
714.2,0.0064
714.1,0.0066
714.0,0.0067
713.9,0.0061
713.8,0.0058
713.7,0.0060
713.6,0.0063
713.5,0.0068
713.4,0.0066
713.3,0.0066
713.2,0.0065
713.1,0.0064
713.0,0.0060
712.9,0.0063
712.8,0.0064
712.7,0.0069
712.6,0.0057
712.5,0.0063
712.4,0.0071
712.3,0.0070
712.2,0.0065
712.1,0.0062
712.0,0.0067
711.9,0.0065
711.8,0.0068
711.7,0.0068
711.6,0.0064
711.5,0.0065
711.4,0.0063
711.3,0.0061
711.2,0.0071
711.1,0.0068
711.0,0.0066
710.9,0.0071
710.8,0.0070
710.7,0.0067
710.6,0.0070
710.5,0.0062
710.4,0.0066
710.3,0.0066
710.2,0.0066
710.1,0.0061
710.0,0.0061
709.9,0.0062
709.8,0.0064
709.7,0.0068
709.6,0.0065
709.5,0.0067
709.4,0.0066
709.3,0.0075
709.2,0.0070
709.1,0.0066
709.0,0.0072
708.9,0.0066
708.8,0.0062
708.7,0.0064
708.6,0.0064
708.5,0.0068
708.4,0.0062
708.3,0.0070
708.2,0.0070
708.1,0.0062
708.0,0.0068
707.9,0.0068
707.8,0.0064
707.7,0.0073
707.6,0.0072
707.5,0.0074
707.4,0.0071
707.3,0.0070
707.2,0.0069
707.1,0.0059
707.0,0.0064
706.9,0.0066
706.8,0.0061
706.7,0.0069
706.6,0.0065
706.5,0.0064
706.4,0.0067
706.3,0.0067
706.2,0.0067
706.1,0.0062
706.0,0.0065
705.9,0.0066
705.8,0.0058
705.7,0.0063
705.6,0.0069
705.5,0.0065
705.4,0.0069
705.3,0.0072
705.2,0.0070
705.1,0.0068
705.0,0.0071
704.9,0.0069
704.8,0.0073
704.7,0.0071
704.6,0.0068
704.5,0.0065
704.4,0.0068
704.3,0.0072
704.2,0.0070
704.1,0.0063
704.0,0.0067
703.9,0.0068
703.8,0.0070
703.7,0.0068
703.6,0.0064
703.5,0.0069
703.4,0.0069
703.3,0.0066
703.2,0.0067
703.1,0.0072
703.0,0.0069
702.9,0.0067
702.8,0.0064
702.7,0.0068
702.6,0.0071
702.5,0.0073
702.4,0.0072
702.3,0.0075
702.2,0.0074
702.1,0.0075
702.0,0.0068
701.9,0.0072
701.8,0.0071
701.7,0.0076
701.6,0.0075
701.5,0.0074
701.4,0.0073
701.3,0.0074
701.2,0.0068
701.1,0.0074
701.0,0.0072
700.9,0.0071
700.8,0.0066
700.7,0.0064
700.6,0.0075
700.5,0.0071
700.4,0.0065
700.3,0.0068
700.2,0.0075
700.1,0.0067
700.0,0.0071
699.9,0.0072
699.8,0.0072
699.7,0.0071
699.6,0.0070
699.5,0.0076
699.4,0.0068
699.3,0.0068
699.2,0.0066
699.1,0.0072
699.0,0.0069
698.9,0.0072
698.8,0.0072
698.7,0.0069
698.6,0.0071
698.5,0.0072
698.4,0.0071
698.3,0.0071
698.2,0.0072
698.1,0.0074
698.0,0.0074
697.9,0.0073
697.8,0.0070
697.7,0.0071
697.6,0.0067
697.5,0.0068
697.4,0.0073
697.3,0.0071
697.2,0.0069
697.1,0.0071
697.0,0.0074
696.9,0.0072
696.8,0.0075
696.7,0.0074
696.6,0.0073
696.5,0.0078
696.4,0.0074
696.3,0.0068
696.2,0.0067
696.1,0.0069
696.0,0.0073
695.9,0.0073
695.8,0.0072
695.7,0.0074
695.6,0.0076
695.5,0.0074
695.4,0.0072
695.3,0.0069
695.2,0.0069
695.1,0.0069
695.0,0.0071
694.9,0.0073
694.8,0.0074
694.7,0.0075
694.6,0.0073
694.5,0.0070
694.4,0.0070
694.3,0.0075
694.2,0.0072
694.1,0.0071
694.0,0.0075
693.9,0.0077
693.8,0.0077
693.7,0.0071
693.6,0.0071
693.5,0.0070
693.4,0.0071
693.3,0.0077
693.2,0.0078
693.1,0.0076
693.0,0.0074
692.9,0.0076
692.8,0.0069
692.7,0.0071
692.6,0.0073
692.5,0.0079
692.4,0.0082
692.3,0.0075
692.2,0.0074
692.1,0.0074
692.0,0.0074
691.9,0.0078
691.8,0.0079
691.7,0.0079
691.6,0.0081
691.5,0.0079
691.4,0.0079
691.3,0.0078
691.2,0.0076
691.1,0.0076
691.0,0.0074
690.9,0.0079
690.8,0.0082
690.7,0.0078
690.6,0.0083
690.5,0.0078
690.4,0.0074
690.3,0.0082
690.2,0.0086
690.1,0.0081
690.0,0.0082
689.9,0.0081
689.8,0.0080
689.7,0.0077
689.6,0.0076
689.5,0.0076
689.4,0.0081
689.3,0.0087
689.2,0.0085
689.1,0.0077
689.0,0.0078
688.9,0.0082
688.8,0.0083
688.7,0.0085
688.6,0.0079
688.5,0.0080
688.4,0.0085
688.3,0.0082
688.2,0.0085
688.1,0.0087
688.0,0.0076
687.9,0.0075
687.8,0.0073
687.7,0.0081
687.6,0.0085
687.5,0.0080
687.4,0.0080
687.3,0.0083
687.2,0.0080
687.1,0.0075
687.0,0.0074
686.9,0.0080
686.8,0.0080
686.7,0.0080
686.6,0.0075
686.5,0.0074
686.4,0.0079
686.3,0.0088
686.2,0.0088
686.1,0.0082
686.0,0.0083
685.9,0.0077
685.8,0.0077
685.7,0.0078
685.6,0.0081
685.5,0.0084
685.4,0.0077
685.3,0.0087
685.2,0.0082
685.1,0.0083
685.0,0.0081
684.9,0.0080
684.8,0.0082
684.7,0.0084
684.6,0.0078
684.5,0.0082
684.4,0.0084
684.3,0.0092
684.2,0.0086
684.1,0.0086
684.0,0.0088
683.9,0.0091
683.8,0.0081
683.7,0.0088
683.6,0.0086
683.5,0.0087
683.4,0.0078
683.3,0.0082
683.2,0.0082
683.1,0.0086
683.0,0.0091
682.9,0.0085
682.8,0.0082
682.7,0.0079
682.6,0.0084
682.5,0.0081
682.4,0.0084
682.3,0.0085
682.2,0.0078
682.1,0.0087
682.0,0.0080
681.9,0.0084
681.8,0.0084
681.7,0.0083
681.6,0.0087
681.5,0.0083
681.4,0.0080
681.3,0.0085
681.2,0.0085
681.1,0.0081
681.0,0.0087
680.9,0.0084
680.8,0.0087
680.7,0.0084
680.6,0.0077
680.5,0.0084
680.4,0.0088
680.3,0.0086
680.2,0.0088
680.1,0.0086
680.0,0.0082
679.9,0.0092
679.8,0.0086
679.7,0.0084
679.6,0.0085
679.5,0.0089
679.4,0.0089
679.3,0.0083
679.2,0.0087
679.1,0.0088
679.0,0.0088
678.9,0.0092
678.8,0.0089
678.7,0.0093
678.6,0.0089
678.5,0.0093
678.4,0.0090
678.3,0.0086
678.2,0.0085
678.1,0.0085
678.0,0.0089
677.9,0.0089
677.8,0.0091
677.7,0.0087
677.6,0.0086
677.5,0.0082
677.4,0.0089
677.3,0.0087
677.2,0.0091
677.1,0.0087
677.0,0.0088
676.9,0.0085
676.8,0.0088
676.7,0.0087
676.6,0.0091
676.5,0.0095
676.4,0.0087
676.3,0.0087
676.2,0.0091
676.1,0.0088
676.0,0.0091
675.9,0.0093
675.8,0.0095
675.7,0.0093
675.6,0.0094
675.5,0.0091
675.4,0.0086
675.3,0.0088
675.2,0.0089
675.1,0.0091
675.0,0.0087
674.9,0.0086
674.8,0.0091
674.7,0.0091
674.6,0.0088
674.5,0.0088
674.4,0.0086
674.3,0.0089
674.2,0.0094
674.1,0.0092
674.0,0.0092
673.9,0.0089
673.8,0.0085
673.7,0.0087
673.6,0.0091
673.5,0.0088
673.4,0.0090
673.3,0.0091
673.2,0.0089
673.1,0.0091
673.0,0.0092
672.9,0.0089
672.8,0.0089
672.7,0.0089
672.6,0.0091
672.5,0.0091
672.4,0.0094
672.3,0.0093
672.2,0.0093
672.1,0.0089
672.0,0.0090
671.9,0.0094
671.8,0.0093
671.7,0.0092
671.6,0.0092
671.5,0.0095
671.4,0.0097
671.3,0.0093
671.2,0.0092
671.1,0.0097
671.0,0.0097
670.9,0.0093
670.8,0.0094
670.7,0.0096
670.6,0.0096
670.5,0.0092
670.4,0.0092
670.3,0.0096
670.2,0.0098
670.1,0.0095
670.0,0.0093
669.9,0.0097
669.8,0.0098
669.7,0.0094
669.6,0.0090
669.5,0.0092
669.4,0.0096
669.3,0.0097
669.2,0.0098
669.1,0.0100
669.0,0.0099
668.9,0.0097
668.8,0.0096
668.7,0.0092
668.6,0.0094
668.5,0.0098
668.4,0.0094
668.3,0.0093
668.2,0.0091
668.1,0.0099
668.0,0.0100
667.9,0.0098
667.8,0.0096
667.7,0.0094
667.6,0.0096
667.5,0.0097
667.4,0.0100
667.3,0.0095
667.2,0.0099
667.1,0.0094
667.0,0.0094
666.9,0.0094
666.8,0.0096
666.7,0.0097
666.6,0.0094
666.5,0.0095
666.4,0.0096
666.3,0.0096
666.2,0.0098
666.1,0.0101
666.0,0.0099
665.9,0.0099
665.8,0.0096
665.7,0.0097
665.6,0.0099
665.5,0.0097
665.4,0.0101
665.3,0.0097
665.2,0.0095
665.1,0.0092
665.0,0.0098
664.9,0.0094
664.8,0.0093
664.7,0.0095
664.6,0.0096
664.5,0.0095
664.4,0.0097
664.3,0.0096
664.2,0.0102
664.1,0.0095
664.0,0.0096
663.9,0.0097
663.8,0.0096
663.7,0.0094
663.6,0.0096
663.5,0.0094
663.4,0.0098
663.3,0.0095
663.2,0.0092
663.1,0.0089
663.0,0.0095
662.9,0.0096
662.8,0.0096
662.7,0.0098
662.6,0.0093
662.5,0.0097
662.4,0.0093
662.3,0.0098
662.2,0.0094
662.1,0.0091
662.0,0.0094
661.9,0.0093
661.8,0.0097
661.7,0.0097
661.6,0.0098
661.5,0.0095
661.4,0.0096
661.3,0.0095
661.2,0.0097
661.1,0.0100
661.0,0.0098
660.9,0.0089
660.8,0.0090
660.7,0.0089
660.6,0.0094
660.5,0.0097
660.4,0.0090
660.3,0.0099
660.2,0.0094
660.1,0.0096
660.0,0.0098
659.9,0.0093
659.8,0.0098
659.7,0.0097
659.6,0.0094
659.5,0.0091
659.4,0.0095
659.3,0.0097
659.2,0.0097
659.1,0.0098
659.0,0.0086
658.9,0.0094
658.8,0.0094
658.7,0.0097
658.6,0.0090
658.5,0.0097
658.4,0.0091
658.3,0.0096
658.2,0.0091
658.1,0.0093
658.0,0.0089
657.9,0.0095
657.8,0.0095
657.7,0.0091
657.6,0.0089
657.5,0.0090
657.4,0.0087
657.3,0.0091
657.2,0.0090
657.1,0.0091
657.0,0.0087
656.9,0.0091
656.8,0.0090
656.7,0.0088
656.6,0.0093
656.5,0.0091
656.4,0.0091
656.3,0.0096
656.2,0.0089
656.1,0.0093
656.0,0.0088
655.9,0.0089
655.8,0.0093
655.7,0.0087
655.6,0.0091
655.5,0.0092
655.4,0.0086
655.3,0.0086
655.2,0.0086
655.1,0.0085
655.0,0.0093
654.9,0.0089
654.8,0.0095
654.7,0.0091
654.6,0.0088
654.5,0.0086
654.4,0.0089
654.3,0.0092
654.2,0.0094
654.1,0.0091
654.0,0.0090
653.9,0.0090
653.8,0.0089
653.7,0.0088
653.6,0.0085
653.5,0.0087
653.4,0.0090
653.3,0.0087
653.2,0.0089
653.1,0.0088
653.0,0.0089
652.9,0.0093
652.8,0.0088
652.7,0.0089
652.6,0.0087
652.5,0.0086
652.4,0.0085
652.3,0.0090
652.2,0.0090
652.1,0.0086
652.0,0.0088
651.9,0.0087
651.8,0.0088
651.7,0.0086
651.6,0.0084
651.5,0.0085
651.4,0.0087
651.3,0.0090
651.2,0.0089
651.1,0.0088
651.0,0.0090
650.9,0.0089
650.8,0.0086
650.7,0.0085
650.6,0.0088
650.5,0.0089
650.4,0.0088
650.3,0.0088
650.2,0.0090
650.1,0.0093
650.0,0.0090
649.9,0.0084
649.8,0.0086
649.7,0.0088
649.6,0.0086
649.5,0.0084
649.4,0.0083
649.3,0.0085
649.2,0.0087
649.1,0.0086
649.0,0.0084
648.9,0.0084
648.8,0.0083
648.7,0.0085
648.6,0.0087
648.5,0.0085
648.4,0.0083
648.3,0.0085
648.2,0.0084
648.1,0.0085
648.0,0.0087
647.9,0.0087
647.8,0.0083
647.7,0.0082
647.6,0.0086
647.5,0.0086
647.4,0.0084
647.3,0.0083
647.2,0.0085
647.1,0.0086
647.0,0.0083
646.9,0.0083
646.8,0.0085
646.7,0.0085
646.6,0.0082
646.5,0.0084
646.4,0.0089
646.3,0.0084
646.2,0.0079
646.1,0.0079
646.0,0.0082
645.9,0.0083
645.8,0.0083
645.7,0.0085
645.6,0.0083
645.5,0.0080
645.4,0.0082
645.3,0.0087
645.2,0.0087
645.1,0.0087
645.0,0.0088
644.9,0.0084
644.8,0.0085
644.7,0.0084
644.6,0.0084
644.5,0.0083
644.4,0.0083
644.3,0.0081
644.2,0.0083
644.1,0.0084
644.0,0.0082
643.9,0.0081
643.8,0.0084
643.7,0.0080
643.6,0.0081
643.5,0.0085
643.4,0.0084
643.3,0.0083
643.2,0.0082
643.1,0.0085
643.0,0.0085
642.9,0.0084
642.8,0.0086
642.7,0.0082
642.6,0.0077
642.5,0.0082
642.4,0.0085
642.3,0.0086
642.2,0.0086
642.1,0.0083
642.0,0.0079
641.9,0.0086
641.8,0.0083
641.7,0.0085
641.6,0.0082
641.5,0.0085
641.4,0.0081
641.3,0.0087
641.2,0.0082
641.1,0.0081
641.0,0.0083
640.9,0.0085
640.8,0.0086
640.7,0.0083
640.6,0.0082
640.5,0.0083
640.4,0.0085
640.3,0.0083
640.2,0.0084
640.1,0.0079
640.0,0.0080
639.9,0.0076
639.8,0.0084
639.7,0.0076
639.6,0.0080
639.5,0.0081
639.4,0.0083
639.3,0.0083
639.2,0.0079
639.1,0.0079
639.0,0.0082
638.9,0.0080
638.8,0.0081
638.7,0.0083
638.6,0.0085
638.5,0.0079
638.4,0.0080
638.3,0.0082
638.2,0.0077
638.1,0.0084
638.0,0.0082
637.9,0.0081
637.8,0.0083
637.7,0.0087
637.6,0.0079
637.5,0.0091
637.4,0.0079
637.3,0.0087
637.2,0.0086
637.1,0.0088
637.0,0.0082
636.9,0.0082
636.8,0.0085
636.7,0.0083
636.6,0.0086
636.5,0.0086
636.4,0.0076
636.3,0.0080
636.2,0.0084
636.1,0.0083
636.0,0.0079
635.9,0.0083
635.8,0.0082
635.7,0.0082
635.6,0.0081
635.5,0.0081
635.4,0.0083
635.3,0.0082
635.2,0.0082
635.1,0.0081
635.0,0.0083
634.9,0.0085
634.8,0.0083
634.7,0.0082
634.6,0.0083
634.5,0.0085
634.4,0.0081
634.3,0.0086
634.2,0.0084
634.1,0.0083
634.0,0.0082
633.9,0.0075
633.8,0.0085
633.7,0.0083
633.6,0.0082
633.5,0.0085
633.4,0.0081
633.3,0.0083
633.2,0.0080
633.1,0.0078
633.0,0.0082
632.9,0.0082
632.8,0.0085
632.7,0.0080
632.6,0.0080
632.5,0.0079
632.4,0.0084
632.3,0.0085
632.2,0.0080
632.1,0.0078
632.0,0.0083
631.9,0.0084
631.8,0.0084
631.7,0.0082
631.6,0.0082
631.5,0.0083
631.4,0.0085
631.3,0.0084
631.2,0.0079
631.1,0.0079
631.0,0.0082
630.9,0.0082
630.8,0.0085
630.7,0.0086
630.6,0.0085
630.5,0.0078
630.4,0.0080
630.3,0.0083
630.2,0.0078
630.1,0.0083
630.0,0.0082
629.9,0.0080
629.8,0.0081
629.7,0.0084
629.6,0.0079
629.5,0.0082
629.4,0.0082
629.3,0.0081
629.2,0.0083
629.1,0.0084
629.0,0.0081
628.9,0.0081
628.8,0.0082
628.7,0.0084
628.6,0.0083
628.5,0.0083
628.4,0.0086
628.3,0.0083
628.2,0.0083
628.1,0.0084
628.0,0.0085
627.9,0.0085
627.8,0.0085
627.7,0.0082
627.6,0.0081
627.5,0.0082
627.4,0.0081
627.3,0.0085
627.2,0.0088
627.1,0.0087
627.0,0.0083
626.9,0.0084
626.8,0.0084
626.7,0.0086
626.6,0.0082
626.5,0.0081
626.4,0.0085
626.3,0.0083
626.2,0.0081
626.1,0.0082
626.0,0.0083
625.9,0.0084
625.8,0.0083
625.7,0.0081
625.6,0.0081
625.5,0.0084
625.4,0.0083
625.3,0.0081
625.2,0.0083
625.1,0.0082
625.0,0.0080
624.9,0.0081
624.8,0.0083
624.7,0.0082
624.6,0.0083
624.5,0.0085
624.4,0.0082
624.3,0.0079
624.2,0.0080
624.1,0.0082
624.0,0.0081
623.9,0.0082
623.8,0.0084
623.7,0.0082
623.6,0.0081
623.5,0.0084
623.4,0.0085
623.3,0.0081
623.2,0.0081
623.1,0.0086
623.0,0.0083
622.9,0.0082
622.8,0.0088
622.7,0.0082
622.6,0.0079
622.5,0.0083
622.4,0.0082
622.3,0.0080
622.2,0.0079
622.1,0.0081
622.0,0.0084
621.9,0.0084
621.8,0.0084
621.7,0.0086
621.6,0.0084
621.5,0.0082
621.4,0.0084
621.3,0.0084
621.2,0.0082
621.1,0.0081
621.0,0.0083
620.9,0.0088
620.8,0.0084
620.7,0.0081
620.6,0.0081
620.5,0.0085
620.4,0.0083
620.3,0.0083
620.2,0.0080
620.1,0.0080
620.0,0.0085
619.9,0.0083
619.8,0.0081
619.7,0.0081
619.6,0.0084
619.5,0.0081
619.4,0.0085
619.3,0.0084
619.2,0.0083
619.1,0.0080
619.0,0.0080
618.9,0.0083
618.8,0.0082
618.7,0.0081
618.6,0.0077
618.5,0.0079
618.4,0.0078
618.3,0.0078
618.2,0.0077
618.1,0.0077
618.0,0.0080
617.9,0.0079
617.8,0.0078
617.7,0.0080
617.6,0.0080
617.5,0.0080
617.4,0.0080
617.3,0.0080
617.2,0.0080
617.1,0.0077
617.0,0.0082
616.9,0.0080
616.8,0.0079
616.7,0.0083
616.6,0.0081
616.5,0.0080
616.4,0.0081
616.3,0.0083
616.2,0.0081
616.1,0.0080
616.0,0.0078
615.9,0.0075
615.8,0.0076
615.7,0.0078
615.6,0.0080
615.5,0.0081
615.4,0.0081
615.3,0.0081
615.2,0.0078
615.1,0.0084
615.0,0.0082
614.9,0.0078
614.8,0.0081
614.7,0.0080
614.6,0.0082
614.5,0.0078
614.4,0.0087
614.3,0.0077
614.2,0.0082
614.1,0.0079
614.0,0.0081
613.9,0.0080
613.8,0.0074
613.7,0.0080
613.6,0.0078
613.5,0.0073
613.4,0.0076
613.3,0.0076
613.2,0.0081
613.1,0.0075
613.0,0.0075
612.9,0.0081
612.8,0.0075
612.7,0.0081
612.6,0.0080
612.5,0.0078
612.4,0.0076
612.3,0.0078
612.2,0.0079
612.1,0.0077
612.0,0.0075
611.9,0.0075
611.8,0.0081
611.7,0.0076
611.6,0.0075
611.5,0.0075
611.4,0.0079
611.3,0.0079
611.2,0.0076
611.1,0.0079
611.0,0.0073
610.9,0.0080
610.8,0.0075
610.7,0.0078
610.6,0.0077
610.5,0.0077
610.4,0.0073
610.3,0.0076
610.2,0.0079
610.1,0.0079
610.0,0.0077
609.9,0.0074
609.8,0.0071
609.7,0.0073
609.6,0.0073
609.5,0.0074
609.4,0.0072
609.3,0.0078
609.2,0.0076
609.1,0.0075
609.0,0.0075
608.9,0.0075
608.8,0.0079
608.7,0.0074
608.6,0.0074
608.5,0.0077
608.4,0.0075
608.3,0.0074
608.2,0.0075
608.1,0.0073
608.0,0.0076
607.9,0.0075
607.8,0.0071
607.7,0.0069
607.6,0.0071
607.5,0.0073
607.4,0.0072
607.3,0.0070
607.2,0.0069
607.1,0.0073
607.0,0.0072
606.9,0.0073
606.8,0.0069
606.7,0.0071
606.6,0.0071
606.5,0.0071
606.4,0.0070
606.3,0.0071
606.2,0.0068
606.1,0.0068
606.0,0.0069
605.9,0.0068
605.8,0.0069
605.7,0.0067
605.6,0.0066
605.5,0.0068
605.4,0.0069
605.3,0.0068
605.2,0.0071
605.1,0.0070
605.0,0.0071
604.9,0.0070
604.8,0.0069
604.7,0.0068
604.6,0.0068
604.5,0.0066
604.4,0.0066
604.3,0.0066
604.2,0.0068
604.1,0.0064
604.0,0.0066
603.9,0.0068
603.8,0.0067
603.7,0.0066
603.6,0.0067
603.5,0.0066
603.4,0.0068
603.3,0.0065
603.2,0.0063
603.1,0.0068
603.0,0.0070
602.9,0.0069
602.8,0.0065
602.7,0.0067
602.6,0.0068
602.5,0.0066
602.4,0.0064
602.3,0.0065
602.2,0.0066
602.1,0.0065
602.0,0.0065
601.9,0.0065
601.8,0.0067
601.7,0.0064
601.6,0.0064
601.5,0.0066
601.4,0.0063
601.3,0.0062
601.2,0.0061
601.1,0.0061
601.0,0.0062
600.9,0.0060
600.8,0.0061
600.7,0.0061
600.6,0.0060
600.5,0.0063
600.4,0.0061
600.3,0.0061
600.2,0.0062
600.1,0.0060
600.0,0.0062
599.9,0.0064
599.8,0.0061
599.7,0.0061
599.6,0.0060
599.5,0.0058
599.4,0.0057
599.3,0.0060
599.2,0.0064
599.1,0.0062
599.0,0.0059
598.9,0.0058
598.8,0.0059
598.7,0.0058
598.6,0.0061
598.5,0.0063
598.4,0.0059
598.3,0.0059
598.2,0.0061
598.1,0.0061
598.0,0.0057
597.9,0.0056
597.8,0.0055
597.7,0.0058
597.6,0.0058
597.5,0.0059
597.4,0.0057
597.3,0.0054
597.2,0.0055
597.1,0.0057
597.0,0.0061
596.9,0.0059
596.8,0.0056
596.7,0.0056
596.6,0.0056
596.5,0.0056
596.4,0.0055
596.3,0.0052
596.2,0.0055
596.1,0.0055
596.0,0.0055
595.9,0.0056
595.8,0.0057
595.7,0.0056
595.6,0.0055
595.5,0.0056
595.4,0.0056
595.3,0.0052
595.2,0.0053
595.1,0.0056
595.0,0.0057
594.9,0.0052
594.8,0.0056
594.7,0.0055
594.6,0.0052
594.5,0.0051
594.4,0.0052
594.3,0.0053
594.2,0.0053
594.1,0.0055
594.0,0.0052
593.9,0.0054
593.8,0.0053
593.7,0.0054
593.6,0.0054
593.5,0.0049
593.4,0.0050
593.3,0.0052
593.2,0.0049
593.1,0.0051
593.0,0.0048
592.9,0.0052
592.8,0.0049
592.7,0.0055
592.6,0.0051
592.5,0.0050
592.4,0.0052
592.3,0.0051
592.2,0.0050
592.1,0.0050
592.0,0.0052
591.9,0.0049
591.8,0.0045
591.7,0.0048
591.6,0.0050
591.5,0.0050
591.4,0.0046
591.3,0.0049
591.2,0.0047
591.1,0.0047
591.0,0.0044
590.9,0.0046
590.8,0.0045
590.7,0.0048
590.6,0.0046
590.5,0.0046
590.4,0.0045
590.3,0.0045
590.2,0.0048
590.1,0.0047
590.0,0.0050
589.9,0.0041
589.8,0.0043
589.7,0.0047
589.6,0.0047
589.5,0.0047
589.4,0.0050
589.3,0.0049
589.2,0.0042
589.1,0.0043
589.0,0.0046
588.9,0.0045
588.8,0.0047
588.7,0.0046
588.6,0.0043
588.5,0.0040
588.4,0.0041
588.3,0.0049
588.2,0.0041
588.1,0.0040
588.0,0.0044
587.9,0.0042
587.8,0.0045
587.7,0.0045
587.6,0.0046
587.5,0.0045
587.4,0.0039
587.3,0.0046
587.2,0.0049
587.1,0.0044
587.0,0.0044
586.9,0.0043
586.8,0.0041
586.7,0.0041
586.6,0.0041
586.5,0.0041
586.4,0.0040
586.3,0.0041
586.2,0.0043
586.1,0.0041
586.0,0.0038
585.9,0.0038
585.8,0.0039
585.7,0.0036
585.6,0.0038
585.5,0.0040
585.4,0.0037
585.3,0.0037
585.2,0.0039
585.1,0.0040
585.0,0.0038
584.9,0.0041
584.8,0.0042
584.7,0.0044
584.6,0.0041
584.5,0.0041
584.4,0.0043
584.3,0.0036
584.2,0.0036
584.1,0.0039
584.0,0.0037
583.9,0.0038
583.8,0.0035
583.7,0.0036
583.6,0.0039
583.5,0.0038
583.4,0.0040
583.3,0.0037
583.2,0.0036
583.1,0.0036
583.0,0.0037
582.9,0.0035
582.8,0.0033
582.7,0.0034
582.6,0.0036
582.5,0.0033
582.4,0.0032
582.3,0.0033
582.2,0.0033
582.1,0.0036
582.0,0.0035
581.9,0.0032
581.8,0.0032
581.7,0.0032
581.6,0.0033
581.5,0.0035
581.4,0.0034
581.3,0.0034
581.2,0.0030
581.1,0.0030
581.0,0.0033
580.9,0.0034
580.8,0.0034
580.7,0.0034
580.6,0.0033
580.5,0.0034
580.4,0.0031
580.3,0.0030
580.2,0.0032
580.1,0.0032
580.0,0.0033
