Created as New Dataset,
nm,A
800.0,0.0083
799.9,0.0062
799.8,0.0067
799.7,0.0062
799.6,0.0076
799.5,0.0071
799.4,0.0080
799.3,0.0079
799.2,0.0080
799.1,0.0062
799.0,0.0079
798.9,0.0063
798.8,0.0074
798.7,0.0074
798.6,0.0066
798.5,0.0057
798.4,0.0078
798.3,0.0075
798.2,0.0079
798.1,0.0068
798.0,0.0065
797.9,0.0061
797.8,0.0078
797.7,0.0070
797.6,0.0067
797.5,0.0075
797.4,0.0075
797.3,0.0079
797.2,0.0083
797.1,0.0079
797.0,0.0077
796.9,0.0066
796.8,0.0070
796.7,0.0078
796.6,0.0078
796.5,0.0074
796.4,0.0084
796.3,0.0075
796.2,0.0073
796.1,0.0077
796.0,0.0077
795.9,0.0077
795.8,0.0079
795.7,0.0070
795.6,0.0068
795.5,0.0063
795.4,0.0062
795.3,0.0072
795.2,0.0078
795.1,0.0074
795.0,0.0081
794.9,0.0078
794.8,0.0069
794.7,0.0077
794.6,0.0082
794.5,0.0076
794.4,0.0072
794.3,0.0085
794.2,0.0081
794.1,0.0075
794.0,0.0070
793.9,0.0081
793.8,0.0083
793.7,0.0079
793.6,0.0075
793.5,0.0069
793.4,0.0063
793.3,0.0068
793.2,0.0073
793.1,0.0078
793.0,0.0077
792.9,0.0077
792.8,0.0073
792.7,0.0074
792.6,0.0075
792.5,0.0066
792.4,0.0071
792.3,0.0072
792.2,0.0076
792.1,0.0076
792.0,0.0073
791.9,0.0075
791.8,0.0072
791.7,0.0072
791.6,0.0072
791.5,0.0061
791.4,0.0069
791.3,0.0076
791.2,0.0080
791.1,0.0079
791.0,0.0078
790.9,0.0075
790.8,0.0076
790.7,0.0080
790.6,0.0078
790.5,0.0075
790.4,0.0070
790.3,0.0072
790.2,0.0085
790.1,0.0088
790.0,0.0078
789.9,0.0067
789.8,0.0070
789.7,0.0074
789.6,0.0070
789.5,0.0080
789.4,0.0079
789.3,0.0074
789.2,0.0078
789.1,0.0087
789.0,0.0084
788.9,0.0070
788.8,0.0072
788.7,0.0078
788.6,0.0074
788.5,0.0075
788.4,0.0072
788.3,0.0075
788.2,0.0074
788.1,0.0067
788.0,0.0072
787.9,0.0070
787.8,0.0073
787.7,0.0079
787.6,0.0075
787.5,0.0073
787.4,0.0078
787.3,0.0078
787.2,0.0080
787.1,0.0076
787.0,0.0076
786.9,0.0078
786.8,0.0078
786.7,0.0069
786.6,0.0068
786.5,0.0072
786.4,0.0069
786.3,0.0072
786.2,0.0077
786.1,0.0074
786.0,0.0073
785.9,0.0079
785.8,0.0074
785.7,0.0068
785.6,0.0074
785.5,0.0073
785.4,0.0072
785.3,0.0074
785.2,0.0062
785.1,0.0068
785.0,0.0063
784.9,0.0073
784.8,0.0081
784.7,0.0072
784.6,0.0071
784.5,0.0071
784.4,0.0076
784.3,0.0077
784.2,0.0081
784.1,0.0077
784.0,0.0069
783.9,0.0076
783.8,0.0084
783.7,0.0073
783.6,0.0076
783.5,0.0074
783.4,0.0075
783.3,0.0079
783.2,0.0087
783.1,0.0080
783.0,0.0078
782.9,0.0073
782.8,0.0075
782.7,0.0065
782.6,0.0075
782.5,0.0081
782.4,0.0076
782.3,0.0082
782.2,0.0074
782.1,0.0071
782.0,0.0075
781.9,0.0088
781.8,0.0090
781.7,0.0072
781.6,0.0071
781.5,0.0066
781.4,0.0074
781.3,0.0083
781.2,0.0070
781.1,0.0066
781.0,0.0076
780.9,0.0079
780.8,0.0078
780.7,0.0072
780.6,0.0081
780.5,0.0075
780.4,0.0072
780.3,0.0067
780.2,0.0066
780.1,0.0079
780.0,0.0082
779.9,0.0081
779.8,0.0078
779.7,0.0069
779.6,0.0073
779.5,0.0076
779.4,0.0084
779.3,0.0077
779.2,0.0077
779.1,0.0081
779.0,0.0080
778.9,0.0079
778.8,0.0077
778.7,0.0076
778.6,0.0069
778.5,0.0073
778.4,0.0073
778.3,0.0079
778.2,0.0087
778.1,0.0079
778.0,0.0082
777.9,0.0072
777.8,0.0074
777.7,0.0068
777.6,0.0082
777.5,0.0071
777.4,0.0085
777.3,0.0080
777.2,0.0070
777.1,0.0075
777.0,0.0084
776.9,0.0086
776.8,0.0077
776.7,0.0085
776.6,0.0082
776.5,0.0078
776.4,0.0075
776.3,0.0081
776.2,0.0068
776.1,0.0076
776.0,0.0069
775.9,0.0084
775.8,0.0082
775.7,0.0078
775.6,0.0074
775.5,0.0078
775.4,0.0064
775.3,0.0089
775.2,0.0070
775.1,0.0082
775.0,0.0082
774.9,0.0076
774.8,0.0078
774.7,0.0080
774.6,0.0086
774.5,0.0099
774.4,0.0072
774.3,0.0078
774.2,0.0079
774.1,0.0085
774.0,0.0074
773.9,0.0074
773.8,0.0078
773.7,0.0080
773.6,0.0073
773.5,0.0078
773.4,0.0071
773.3,0.0084
773.2,0.0084
773.1,0.0081
773.0,0.0081
772.9,0.0080
772.8,0.0085
772.7,0.0079
772.6,0.0077
772.5,0.0079
772.4,0.0077
772.3,0.0079
772.2,0.0073
772.1,0.0081
772.0,0.0077
771.9,0.0073
771.8,0.0082
771.7,0.0082
771.6,0.0075
771.5,0.0081
771.4,0.0071
771.3,0.0076
771.2,0.0074
771.1,0.0079
771.0,0.0078
770.9,0.0077
770.8,0.0082
770.7,0.0078
770.6,0.0075
770.5,0.0073
770.4,0.0069
770.3,0.0075
770.2,0.0081
770.1,0.0086
770.0,0.0084
769.9,0.0084
769.8,0.0086
769.7,0.0077
769.6,0.0071
769.5,0.0079
769.4,0.0085
769.3,0.0078
769.2,0.0082
769.1,0.0086
769.0,0.0083
768.9,0.0080
768.8,0.0082
768.7,0.0078
768.6,0.0071
768.5,0.0075
768.4,0.0081
768.3,0.0084
768.2,0.0081
768.1,0.0079
768.0,0.0080
767.9,0.0077
767.8,0.0073
767.7,0.0080
767.6,0.0084
767.5,0.0080
767.4,0.0087
767.3,0.0084
767.2,0.0080
767.1,0.0080
767.0,0.0074
766.9,0.0075
766.8,0.0081
766.7,0.0081
766.6,0.0087
766.5,0.0085
766.4,0.0084
766.3,0.0089
766.2,0.0083
766.1,0.0080
766.0,0.0085
765.9,0.0081
765.8,0.0076
765.7,0.0078
765.6,0.0079
765.5,0.0081
765.4,0.0084
765.3,0.0084
765.2,0.0084
765.1,0.0080
765.0,0.0081
764.9,0.0079
764.8,0.0076
764.7,0.0081
764.6,0.0082
764.5,0.0078
764.4,0.0083
764.3,0.0079
764.2,0.0075
764.1,0.0081
764.0,0.0076
763.9,0.0070
763.8,0.0074
763.7,0.0078
763.6,0.0075
763.5,0.0084
763.4,0.0085
763.3,0.0085
763.2,0.0082
763.1,0.0083
763.0,0.0085
762.9,0.0079
762.8,0.0081
762.7,0.0087
762.6,0.0088
762.5,0.0087
762.4,0.0091
762.3,0.0092
762.2,0.0091
762.1,0.0082
762.0,0.0083
761.9,0.0087
761.8,0.0083
761.7,0.0081
761.6,0.0083
761.5,0.0086
761.4,0.0083
761.3,0.0086
761.2,0.0081
761.1,0.0080
761.0,0.0083
760.9,0.0075
760.8,0.0077
760.7,0.0078
760.6,0.0079
760.5,0.0082
760.4,0.0082
760.3,0.0081
760.2,0.0075
760.1,0.0079
760.0,0.0090
759.9,0.0079
759.8,0.0078
759.7,0.0081
759.6,0.0083
759.5,0.0077
759.4,0.0077
759.3,0.0081
759.2,0.0085
759.1,0.0083
759.0,0.0073
758.9,0.0079
758.8,0.0077
758.7,0.0080
758.6,0.0079
758.5,0.0088
758.4,0.0081
758.3,0.0083
758.2,0.0083
758.1,0.0086
758.0,0.0085
757.9,0.0081
757.8,0.0092
757.7,0.0083
757.6,0.0084
757.5,0.0081
757.4,0.0082
757.3,0.0085
757.2,0.0086
757.1,0.0079
757.0,0.0085
756.9,0.0088
756.8,0.0093
756.7,0.0082
756.6,0.0089
756.5,0.0088
756.4,0.0089
756.3,0.0082
756.2,0.0088
756.1,0.0080
756.0,0.0080
755.9,0.0074
755.8,0.0084
755.7,0.0082
755.6,0.0072
755.5,0.0087
755.4,0.0087
755.3,0.0091
755.2,0.0084
755.1,0.0082
755.0,0.0076
754.9,0.0084
754.8,0.0090
754.7,0.0080
754.6,0.0087
754.5,0.0082
754.4,0.0087
754.3,0.0090
754.2,0.0084
754.1,0.0082
754.0,0.0090
753.9,0.0088
753.8,0.0075
753.7,0.0092
753.6,0.0087
753.5,0.0077
753.4,0.0084
753.3,0.0079
753.2,0.0087
753.1,0.0089
753.0,0.0092
752.9,0.0075
752.8,0.0086
752.7,0.0081
752.6,0.0078
752.5,0.0084
752.4,0.0084
752.3,0.0095
752.2,0.0088
752.1,0.0086
752.0,0.0080
751.9,0.0090
751.8,0.0083
751.7,0.0077
751.6,0.0078
751.5,0.0087
751.4,0.0084
751.3,0.0081
751.2,0.0077
751.1,0.0080
751.0,0.0087
750.9,0.0081
750.8,0.0082
750.7,0.0081
750.6,0.0086
750.5,0.0086
750.4,0.0092
750.3,0.0088
750.2,0.0082
750.1,0.0074
750.0,0.0085
749.9,0.0078
749.8,0.0085
749.7,0.0091
749.6,0.0086
749.5,0.0092
749.4,0.0084
749.3,0.0093
749.2,0.0096
749.1,0.0089
749.0,0.0088
748.9,0.0086
748.8,0.0083
748.7,0.0087
748.6,0.0081
748.5,0.0085
748.4,0.0078
748.3,0.0084
748.2,0.0087
748.1,0.0091
748.0,0.0082
747.9,0.0092
747.8,0.0090
747.7,0.0094
747.6,0.0094
747.5,0.0094
747.4,0.0090
747.3,0.0087
747.2,0.0084
747.1,0.0090
747.0,0.0086
746.9,0.0087
746.8,0.0080
746.7,0.0084
746.6,0.0087
746.5,0.0087
746.4,0.0080
746.3,0.0080
746.2,0.0086
746.1,0.0083
746.0,0.0084
745.9,0.0085
745.8,0.0084
745.7,0.0089
745.6,0.0093
745.5,0.0091
745.4,0.0087
745.3,0.0086
745.2,0.0091
745.1,0.0088
745.0,0.0092
744.9,0.0089
744.8,0.0087
744.7,0.0092
744.6,0.0090
744.5,0.0090
744.4,0.0088
744.3,0.0082
744.2,0.0082
744.1,0.0091
744.0,0.0089
743.9,0.0081
743.8,0.0080
743.7,0.0086
743.6,0.0087
743.5,0.0084
743.4,0.0082
743.3,0.0089
743.2,0.0091
743.1,0.0084
743.0,0.0088
742.9,0.0087
742.8,0.0087
742.7,0.0086
742.6,0.0086
742.5,0.0090
742.4,0.0089
742.3,0.0088
742.2,0.0089
742.1,0.0085
742.0,0.0088
741.9,0.0089
741.8,0.0086
741.7,0.0088
741.6,0.0086
741.5,0.0088
741.4,0.0090
741.3,0.0093
741.2,0.0091
741.1,0.0086
741.0,0.0087
740.9,0.0089
740.8,0.0090
740.7,0.0089
740.6,0.0088
740.5,0.0092
740.4,0.0087
740.3,0.0085
740.2,0.0089
740.1,0.0092
740.0,0.0090
739.9,0.0089
739.8,0.0095
739.7,0.0097
739.6,0.0096
739.5,0.0090
739.4,0.0086
739.3,0.0085
739.2,0.0083
739.1,0.0088
739.0,0.0090
738.9,0.0089
738.8,0.0093
738.7,0.0091
738.6,0.0085
738.5,0.0081
738.4,0.0083
738.3,0.0089
738.2,0.0093
738.1,0.0087
738.0,0.0086
737.9,0.0088
737.8,0.0093
737.7,0.0093
737.6,0.0090
737.5,0.0088
737.4,0.0090
737.3,0.0094
737.2,0.0098
737.1,0.0087
737.0,0.0082
736.9,0.0086
736.8,0.0091
736.7,0.0092
736.6,0.0093
736.5,0.0094
736.4,0.0098
736.3,0.0085
736.2,0.0088
736.1,0.0084
736.0,0.0090
735.9,0.0091
735.8,0.0096
735.7,0.0091
735.6,0.0092
735.5,0.0092
735.4,0.0086
735.3,0.0088
735.2,0.0094
735.1,0.0093
735.0,0.0089
734.9,0.0088
734.8,0.0092
734.7,0.0093
734.6,0.0093
734.5,0.0092
734.4,0.0092
734.3,0.0092
734.2,0.0099
734.1,0.0088
734.0,0.0085
733.9,0.0089
733.8,0.0090
733.7,0.0095
733.6,0.0090
733.5,0.0091
733.4,0.0093
733.3,0.0081
733.2,0.0089
733.1,0.0095
733.0,0.0092
732.9,0.0093
732.8,0.0084
732.7,0.0090
732.6,0.0088
732.5,0.0096
732.4,0.0089
732.3,0.0093
732.2,0.0095
732.1,0.0089
732.0,0.0090
731.9,0.0090
731.8,0.0096
731.7,0.0092
731.6,0.0093
731.5,0.0089
731.4,0.0090
731.3,0.0091
731.2,0.0094
731.1,0.0096
731.0,0.0089
730.9,0.0089
730.8,0.0101
730.7,0.0095
730.6,0.0082
730.5,0.0092
730.4,0.0100
730.3,0.0091
730.2,0.0088
730.1,0.0099
730.0,0.0093
729.9,0.0089
729.8,0.0092
729.7,0.0095
729.6,0.0100
729.5,0.0099
729.4,0.0092
729.3,0.0096
729.2,0.0084
729.1,0.0088
729.0,0.0100
728.9,0.0086
728.8,0.0097
728.7,0.0094
728.6,0.0097
728.5,0.0099
728.4,0.0097
728.3,0.0089
728.2,0.0092
728.1,0.0096
728.0,0.0091
727.9,0.0088
727.8,0.0091
727.7,0.0093
727.6,0.0097
727.5,0.0101
727.4,0.0092
727.3,0.0098
727.2,0.0094
727.1,0.0098
727.0,0.0089
726.9,0.0088
726.8,0.0092
726.7,0.0095
726.6,0.0097
726.5,0.0088
726.4,0.0091
726.3,0.0098
726.2,0.0100
726.1,0.0097
726.0,0.0094
725.9,0.0100
725.8,0.0098
725.7,0.0094
725.6,0.0093
725.5,0.0093
725.4,0.0094
725.3,0.0093
725.2,0.0096
725.1,0.0095
725.0,0.0098
724.9,0.0089
724.8,0.0096
724.7,0.0097
724.6,0.0090
724.5,0.0090
724.4,0.0092
724.3,0.0090
724.2,0.0095
724.1,0.0101
724.0,0.0092
723.9,0.0096
723.8,0.0100
723.7,0.0091
723.6,0.0092
723.5,0.0097
723.4,0.0090
723.3,0.0096
723.2,0.0097
723.1,0.0099
723.0,0.0101
722.9,0.0099
722.8,0.0098
722.7,0.0097
722.6,0.0096
722.5,0.0098
722.4,0.0099
722.3,0.0097
722.2,0.0095
722.1,0.0100
722.0,0.0101
721.9,0.0096
721.8,0.0096
721.7,0.0093
721.6,0.0092
721.5,0.0096
721.4,0.0098
721.3,0.0094
721.2,0.0094
721.1,0.0097
721.0,0.0095
720.9,0.0095
720.8,0.0096
720.7,0.0098
720.6,0.0099
720.5,0.0097
720.4,0.0098
720.3,0.0103
720.2,0.0099
720.1,0.0098
720.0,0.0095
719.9,0.0097
719.8,0.0099
719.7,0.0098
719.6,0.0106
719.5,0.0103
719.4,0.0098
719.3,0.0099
719.2,0.0099
719.1,0.0098
719.0,0.0101
718.9,0.0099
718.8,0.0097
718.7,0.0101
718.6,0.0100
718.5,0.0104
718.4,0.0105
718.3,0.0096
718.2,0.0093
718.1,0.0093
718.0,0.0093
717.9,0.0100
717.8,0.0102
717.7,0.0096
717.6,0.0098
717.5,0.0098
717.4,0.0098
717.3,0.0098
717.2,0.0095
717.1,0.0099
717.0,0.0102
716.9,0.0100
716.8,0.0099
716.7,0.0102
716.6,0.0101
716.5,0.0097
716.4,0.0097
716.3,0.0096
716.2,0.0097
716.1,0.0096
716.0,0.0098
715.9,0.0103
715.8,0.0098
715.7,0.0100
715.6,0.0099
715.5,0.0101
715.4,0.0102
715.3,0.0099
715.2,0.0099
715.1,0.0095
715.0,0.0102
714.9,0.0101
714.8,0.0098
714.7,0.0102
714.6,0.0102
714.5,0.0098
714.4,0.0102
714.3,0.0103
714.2,0.0099
714.1,0.0099
714.0,0.0097
713.9,0.0099
713.8,0.0103
713.7,0.0100
713.6,0.0104
713.5,0.0105
713.4,0.0099
713.3,0.0097
713.2,0.0103
713.1,0.0099
713.0,0.0094
712.9,0.0101
712.8,0.0096
712.7,0.0103
712.6,0.0102
712.5,0.0103
712.4,0.0107
712.3,0.0105
712.2,0.0104
712.1,0.0103
712.0,0.0105
711.9,0.0098
711.8,0.0101
711.7,0.0101
711.6,0.0102
711.5,0.0104
711.4,0.0099
711.3,0.0097
711.2,0.0104
711.1,0.0106
711.0,0.0102
710.9,0.0104
710.8,0.0104
710.7,0.0108
710.6,0.0111
710.5,0.0102
710.4,0.0103
710.3,0.0101
710.2,0.0105
710.1,0.0105
710.0,0.0106
709.9,0.0102
709.8,0.0098
709.7,0.0105
709.6,0.0109
709.5,0.0099
709.4,0.0107
709.3,0.0110
709.2,0.0104
709.1,0.0107
709.0,0.0105
708.9,0.0102
708.8,0.0095
708.7,0.0104
708.6,0.0101
708.5,0.0102
708.4,0.0100
708.3,0.0104
708.2,0.0100
708.1,0.0105
708.0,0.0106
707.9,0.0100
707.8,0.0104
707.7,0.0103
707.6,0.0109
707.5,0.0104
707.4,0.0107
707.3,0.0109
707.2,0.0104
707.1,0.0095
707.0,0.0103
706.9,0.0107
706.8,0.0101
706.7,0.0111
706.6,0.0102
706.5,0.0106
706.4,0.0106
706.3,0.0103
706.2,0.0109
706.1,0.0107
706.0,0.0119
705.9,0.0113
705.8,0.0100
705.7,0.0103
705.6,0.0107
705.5,0.0109
705.4,0.0101
705.3,0.0112
705.2,0.0110
705.1,0.0099
705.0,0.0109
704.9,0.0111
704.8,0.0113
704.7,0.0105
704.6,0.0106
704.5,0.0108
704.4,0.0106
704.3,0.0105
704.2,0.0107
704.1,0.0108
704.0,0.0110
703.9,0.0107
703.8,0.0114
703.7,0.0107
703.6,0.0105
703.5,0.0106
703.4,0.0107
703.3,0.0106
703.2,0.0107
703.1,0.0107
703.0,0.0109
702.9,0.0105
702.8,0.0097
702.7,0.0106
702.6,0.0105
702.5,0.0112
702.4,0.0111
702.3,0.0117
702.2,0.0112
702.1,0.0109
702.0,0.0112
701.9,0.0110
701.8,0.0110
701.7,0.0118
701.6,0.0115
701.5,0.0111
701.4,0.0110
701.3,0.0107
701.2,0.0110
701.1,0.0117
701.0,0.0110
700.9,0.0110
700.8,0.0112
700.7,0.0108
700.6,0.0113
700.5,0.0111
700.4,0.0109
700.3,0.0114
700.2,0.0115
700.1,0.0113
700.0,0.0113
699.9,0.0112
699.8,0.0111
699.7,0.0114
699.6,0.0113
699.5,0.0118
699.4,0.0115
699.3,0.0110
699.2,0.0110
699.1,0.0113
699.0,0.0111
698.9,0.0112
698.8,0.0112
698.7,0.0117
698.6,0.0118
698.5,0.0119
698.4,0.0115
698.3,0.0113
698.2,0.0112
698.1,0.0111
698.0,0.0117
697.9,0.0115
697.8,0.0110
697.7,0.0113
697.6,0.0116
697.5,0.0116
697.4,0.0116
697.3,0.0115
697.2,0.0111
697.1,0.0111
697.0,0.0116
696.9,0.0112
696.8,0.0117
696.7,0.0116
696.6,0.0114
696.5,0.0119
696.4,0.0118
696.3,0.0114
696.2,0.0113
696.1,0.0115
696.0,0.0119
695.9,0.0118
695.8,0.0110
695.7,0.0108
695.6,0.0115
695.5,0.0118
695.4,0.0115
695.3,0.0113
695.2,0.0114
695.1,0.0111
695.0,0.0112
694.9,0.0114
694.8,0.0113
694.7,0.0119
694.6,0.0120
694.5,0.0116
694.4,0.0116
694.3,0.0120
694.2,0.0116
694.1,0.0113
694.0,0.0118
693.9,0.0118
693.8,0.0119
693.7,0.0117
693.6,0.0115
693.5,0.0118
693.4,0.0119
693.3,0.0120
693.2,0.0121
693.1,0.0121
693.0,0.0121
692.9,0.0124
692.8,0.0123
692.7,0.0118
692.6,0.0118
692.5,0.0124
692.4,0.0123
692.3,0.0121
692.2,0.0123
692.1,0.0125
692.0,0.0123
691.9,0.0121
691.8,0.0121
691.7,0.0122
691.6,0.0125
691.5,0.0125
691.4,0.0123
691.3,0.0122
691.2,0.0122
691.1,0.0119
691.0,0.0122
690.9,0.0123
690.8,0.0124
690.7,0.0121
690.6,0.0121
690.5,0.0121
690.4,0.0124
690.3,0.0125
690.2,0.0126
690.1,0.0121
690.0,0.0118
689.9,0.0122
689.8,0.0125
689.7,0.0125
689.6,0.0120
689.5,0.0122
689.4,0.0124
689.3,0.0127
689.2,0.0127
689.1,0.0123
689.0,0.0122
688.9,0.0121
688.8,0.0128
688.7,0.0128
688.6,0.0129
688.5,0.0129
688.4,0.0127
688.3,0.0125
688.2,0.0125
688.1,0.0126
688.0,0.0121
687.9,0.0124
687.8,0.0125
687.7,0.0126
687.6,0.0124
687.5,0.0126
687.4,0.0125
687.3,0.0131
687.2,0.0125
687.1,0.0124
687.0,0.0118
686.9,0.0125
686.8,0.0127
686.7,0.0125
686.6,0.0122
686.5,0.0130
686.4,0.0132
686.3,0.0129
686.2,0.0130
686.1,0.0123
686.0,0.0130
685.9,0.0126
685.8,0.0123
685.7,0.0128
685.6,0.0129
685.5,0.0128
685.4,0.0127
685.3,0.0129
685.2,0.0130
685.1,0.0123
685.0,0.0130
684.9,0.0131
684.8,0.0132
684.7,0.0130
684.6,0.0126
684.5,0.0125
684.4,0.0131
684.3,0.0138
684.2,0.0137
684.1,0.0136
684.0,0.0131
683.9,0.0135
683.8,0.0129
683.7,0.0130
683.6,0.0131
683.5,0.0136
683.4,0.0128
683.3,0.0131
683.2,0.0137
683.1,0.0133
683.0,0.0138
682.9,0.0138
682.8,0.0130
682.7,0.0129
682.6,0.0129
682.5,0.0131
682.4,0.0130
682.3,0.0133
682.2,0.0128
682.1,0.0134
682.0,0.0138
681.9,0.0136
681.8,0.0133
681.7,0.0132
681.6,0.0134
681.5,0.0130
681.4,0.0132
681.3,0.0131
681.2,0.0133
681.1,0.0133
681.0,0.0133
680.9,0.0137
680.8,0.0133
680.7,0.0136
680.6,0.0127
680.5,0.0133
680.4,0.0132
680.3,0.0136
680.2,0.0134
680.1,0.0138
680.0,0.0135
679.9,0.0136
679.8,0.0133
679.7,0.0135
679.6,0.0134
679.5,0.0132
679.4,0.0137
679.3,0.0136
679.2,0.0134
679.1,0.0134
679.0,0.0137
678.9,0.0141
678.8,0.0141
678.7,0.0138
678.6,0.0137
678.5,0.0143
678.4,0.0136
678.3,0.0137
678.2,0.0134
678.1,0.0139
678.0,0.0140
677.9,0.0140
677.8,0.0145
677.7,0.0139
677.6,0.0140
677.5,0.0138
677.4,0.0144
677.3,0.0142
677.2,0.0139
677.1,0.0140
677.0,0.0143
676.9,0.0143
676.8,0.0142
676.7,0.0140
676.6,0.0140
676.5,0.0144
676.4,0.0143
676.3,0.0146
676.2,0.0144
676.1,0.0141
676.0,0.0140
675.9,0.0141
675.8,0.0143
675.7,0.0141
675.6,0.0141
675.5,0.0141
675.4,0.0146
675.3,0.0145
675.2,0.0144
675.1,0.0143
675.0,0.0143
674.9,0.0141
674.8,0.0146
674.7,0.0146
674.6,0.0143
674.5,0.0142
674.4,0.0144
674.3,0.0144
674.2,0.0147
674.1,0.0149
674.0,0.0150
673.9,0.0148
673.8,0.0144
673.7,0.0143
673.6,0.0143
673.5,0.0145
673.4,0.0149
673.3,0.0147
673.2,0.0144
673.1,0.0146
673.0,0.0146
672.9,0.0146
672.8,0.0148
672.7,0.0146
672.6,0.0148
672.5,0.0147
672.4,0.0151
672.3,0.0150
672.2,0.0149
672.1,0.0147
672.0,0.0149
671.9,0.0152
671.8,0.0151
671.7,0.0150
671.6,0.0150
671.5,0.0152
671.4,0.0151
671.3,0.0151
671.2,0.0152
671.1,0.0151
671.0,0.0148
670.9,0.0148
670.8,0.0153
670.7,0.0155
670.6,0.0153
670.5,0.0147
670.4,0.0148
670.3,0.0151
670.2,0.0155
670.1,0.0153
670.0,0.0149
669.9,0.0150
669.8,0.0150
669.7,0.0148
669.6,0.0149
669.5,0.0153
669.4,0.0153
669.3,0.0149
669.2,0.0147
669.1,0.0153
669.0,0.0153
668.9,0.0152
668.8,0.0154
668.7,0.0154
668.6,0.0154
668.5,0.0155
668.4,0.0155
668.3,0.0151
668.2,0.0148
668.1,0.0154
668.0,0.0155
667.9,0.0155
667.8,0.0155
667.7,0.0153
667.6,0.0154
667.5,0.0155
667.4,0.0159
667.3,0.0154
667.2,0.0158
667.1,0.0153
667.0,0.0154
666.9,0.0155
666.8,0.0155
666.7,0.0156
666.6,0.0153
666.5,0.0150
666.4,0.0153
666.3,0.0153
666.2,0.0152
666.1,0.0154
666.0,0.0157
665.9,0.0155
665.8,0.0156
665.7,0.0155
665.6,0.0154
665.5,0.0153
665.4,0.0154
665.3,0.0153
665.2,0.0153
665.1,0.0155
665.0,0.0153
664.9,0.0151
664.8,0.0153
664.7,0.0157
664.6,0.0154
664.5,0.0151
664.4,0.0153
664.3,0.0156
664.2,0.0156
664.1,0.0150
664.0,0.0152
663.9,0.0155
663.8,0.0155
663.7,0.0155
663.6,0.0155
663.5,0.0152
663.4,0.0155
663.3,0.0153
663.2,0.0151
663.1,0.0151
663.0,0.0152
662.9,0.0155
662.8,0.0152
662.7,0.0157
662.6,0.0150
662.5,0.0153
662.4,0.0150
662.3,0.0158
662.2,0.0152
662.1,0.0151
662.0,0.0151
661.9,0.0154
661.8,0.0154
661.7,0.0152
661.6,0.0153
661.5,0.0152
661.4,0.0149
661.3,0.0148
661.2,0.0153
661.1,0.0160
661.0,0.0152
660.9,0.0153
660.8,0.0146
660.7,0.0148
660.6,0.0154
660.5,0.0153
660.4,0.0151
660.3,0.0154
660.2,0.0151
660.1,0.0148
660.0,0.0150
659.9,0.0152
659.8,0.0149
659.7,0.0149
659.6,0.0147
659.5,0.0144
659.4,0.0145
659.3,0.0144
659.2,0.0154
659.1,0.0152
659.0,0.0144
658.9,0.0144
658.8,0.0151
658.7,0.0148
658.6,0.0143
658.5,0.0147
658.4,0.0148
658.3,0.0147
658.2,0.0149
658.1,0.0149
658.0,0.0150
657.9,0.0155
657.8,0.0146
657.7,0.0150
657.6,0.0145
657.5,0.0147
657.4,0.0144
657.3,0.0148
657.2,0.0146
657.1,0.0148
657.0,0.0147
656.9,0.0147
656.8,0.0146
656.7,0.0146
656.6,0.0150
656.5,0.0148
656.4,0.0148
656.3,0.0149
656.2,0.0147
656.1,0.0148
656.0,0.0145
655.9,0.0137
655.8,0.0144
655.7,0.0142
655.6,0.0149
655.5,0.0145
655.4,0.0142
655.3,0.0146
655.2,0.0141
655.1,0.0140
655.0,0.0145
654.9,0.0138
654.8,0.0141
654.7,0.0140
654.6,0.0141
654.5,0.0140
654.4,0.0145
654.3,0.0147
654.2,0.0146
654.1,0.0143
654.0,0.0143
653.9,0.0142
653.8,0.0145
653.7,0.0141
653.6,0.0139
653.5,0.0144
653.4,0.0141
653.3,0.0140
653.2,0.0146
653.1,0.0142
653.0,0.0144
652.9,0.0148
652.8,0.0137
652.7,0.0140
652.6,0.0141
652.5,0.0135
652.4,0.0137
652.3,0.0144
652.2,0.0143
652.1,0.0136
652.0,0.0140
651.9,0.0141
651.8,0.0137
651.7,0.0138
651.6,0.0140
651.5,0.0138
651.4,0.0139
651.3,0.0144
651.2,0.0143
651.1,0.0142
651.0,0.0146
650.9,0.0142
650.8,0.0142
650.7,0.0143
650.6,0.0141
650.5,0.0142
650.4,0.0143
650.3,0.0142
650.2,0.0144
650.1,0.0146
650.0,0.0142
649.9,0.0138
649.8,0.0139
649.7,0.0142
649.6,0.0140
649.5,0.0138
649.4,0.0138
649.3,0.0143
649.2,0.0143
649.1,0.0136
649.0,0.0134
648.9,0.0136
648.8,0.0138
648.7,0.0139
648.6,0.0142
648.5,0.0141
648.4,0.0139
648.3,0.0139
648.2,0.0140
648.1,0.0140
648.0,0.0140
647.9,0.0140
647.8,0.0137
647.7,0.0136
647.6,0.0137
647.5,0.0136
647.4,0.0138
647.3,0.0140
647.2,0.0139
647.1,0.0138
647.0,0.0139
646.9,0.0138
646.8,0.0139
646.7,0.0138
646.6,0.0134
646.5,0.0137
646.4,0.0142
646.3,0.0138
646.2,0.0136
646.1,0.0139
646.0,0.0140
645.9,0.0139
645.8,0.0139
645.7,0.0139
645.6,0.0139
645.5,0.0138
645.4,0.0139
645.3,0.0141
645.2,0.0142
645.1,0.0142
645.0,0.0141
644.9,0.0139
644.8,0.0142
644.7,0.0142
644.6,0.0142
644.5,0.0140
644.4,0.0140
644.3,0.0140
644.2,0.0141
644.1,0.0143
644.0,0.0146
643.9,0.0139
643.8,0.0139
643.7,0.0139
643.6,0.0140
643.5,0.0143
643.4,0.0142
643.3,0.0143
643.2,0.0139
643.1,0.0139
643.0,0.0139
642.9,0.0141
642.8,0.0139
642.7,0.0140
642.6,0.0139
642.5,0.0142
642.4,0.0142
642.3,0.0141
642.2,0.0140
642.1,0.0142
642.0,0.0136
641.9,0.0143
641.8,0.0142
641.7,0.0145
641.6,0.0143
641.5,0.0144
641.4,0.0139
641.3,0.0141
641.2,0.0142
641.1,0.0137
641.0,0.0139
640.9,0.0144
640.8,0.0145
640.7,0.0139
640.6,0.0140
640.5,0.0143
640.4,0.0140
640.3,0.0140
640.2,0.0140
640.1,0.0140
640.0,0.0141
639.9,0.0137
639.8,0.0139
639.7,0.0138
639.6,0.0144
639.5,0.0143
639.4,0.0148
639.3,0.0145
639.2,0.0142
639.1,0.0147
639.0,0.0143
638.9,0.0141
638.8,0.0140
638.7,0.0143
638.6,0.0145
638.5,0.0139
638.4,0.0145
638.3,0.0140
638.2,0.0140
638.1,0.0140
638.0,0.0141
637.9,0.0140
637.8,0.0140
637.7,0.0146
637.6,0.0137
637.5,0.0146
637.4,0.0143
637.3,0.0146
637.2,0.0144
637.1,0.0146
637.0,0.0140
636.9,0.0142
636.8,0.0145
636.7,0.0143
636.6,0.0146
636.5,0.0148
636.4,0.0144
636.3,0.0143
636.2,0.0146
636.1,0.0142
636.0,0.0140
635.9,0.0146
635.8,0.0145
635.7,0.0152
635.6,0.0144
635.5,0.0144
635.4,0.0145
635.3,0.0142
635.2,0.0148
635.1,0.0141
635.0,0.0147
634.9,0.0148
634.8,0.0147
634.7,0.0146
634.6,0.0149
634.5,0.0151
634.4,0.0149
634.3,0.0153
634.2,0.0148
634.1,0.0145
634.0,0.0147
633.9,0.0144
633.8,0.0150
633.7,0.0151
633.6,0.0153
633.5,0.0150
633.4,0.0148
633.3,0.0145
633.2,0.0148
633.1,0.0143
633.0,0.0147
632.9,0.0148
632.8,0.0149
632.7,0.0144
632.6,0.0145
632.5,0.0143
632.4,0.0150
632.3,0.0152
632.2,0.0145
632.1,0.0150
632.0,0.0150
631.9,0.0153
631.8,0.0149
631.7,0.0147
631.6,0.0148
631.5,0.0150
631.4,0.0152
631.3,0.0149
631.2,0.0147
631.1,0.0148
631.0,0.0149
630.9,0.0150
630.8,0.0150
630.7,0.0148
630.6,0.0150
630.5,0.0149
630.4,0.0150
630.3,0.0149
630.2,0.0151
630.1,0.0152
630.0,0.0152
629.9,0.0148
629.8,0.0149
629.7,0.0152
629.6,0.0151
629.5,0.0155
629.4,0.0157
629.3,0.0153
629.2,0.0156
629.1,0.0156
629.0,0.0153
628.9,0.0153
628.8,0.0153
628.7,0.0153
628.6,0.0152
628.5,0.0151
628.4,0.0151
628.3,0.0150
628.2,0.0154
628.1,0.0156
628.0,0.0157
627.9,0.0156
627.8,0.0155
627.7,0.0153
627.6,0.0153
627.5,0.0157
627.4,0.0155
627.3,0.0156
627.2,0.0158
627.1,0.0159
627.0,0.0153
626.9,0.0152
626.8,0.0154
626.7,0.0155
626.6,0.0153
626.5,0.0152
626.4,0.0154
626.3,0.0154
626.2,0.0152
626.1,0.0152
626.0,0.0152
625.9,0.0155
625.8,0.0156
625.7,0.0151
625.6,0.0151
625.5,0.0156
625.4,0.0154
625.3,0.0151
625.2,0.0154
625.1,0.0153
625.0,0.0153
624.9,0.0157
624.8,0.0157
624.7,0.0157
624.6,0.0159
624.5,0.0157
624.4,0.0153
624.3,0.0154
624.2,0.0156
624.1,0.0157
624.0,0.0156
623.9,0.0155
623.8,0.0158
623.7,0.0158
623.6,0.0156
623.5,0.0155
623.4,0.0157
623.3,0.0157
623.2,0.0155
623.1,0.0160
623.0,0.0158
622.9,0.0154
622.8,0.0158
622.7,0.0155
622.6,0.0153
622.5,0.0158
622.4,0.0157
622.3,0.0154
622.2,0.0153
622.1,0.0154
622.0,0.0157
621.9,0.0160
621.8,0.0162
621.7,0.0162
621.6,0.0158
621.5,0.0158
621.4,0.0158
621.3,0.0158
621.2,0.0158
621.1,0.0161
621.0,0.0160
620.9,0.0163
620.8,0.0162
620.7,0.0162
620.6,0.0160
620.5,0.0162
620.4,0.0162
620.3,0.0160
620.2,0.0157
620.1,0.0160
620.0,0.0162
619.9,0.0158
619.8,0.0157
619.7,0.0159
619.6,0.0159
619.5,0.0154
619.4,0.0160
619.3,0.0163
619.2,0.0160
619.1,0.0155
619.0,0.0160
618.9,0.0160
618.8,0.0159
618.7,0.0158
618.6,0.0157
618.5,0.0160
618.4,0.0157
618.3,0.0157
618.2,0.0158
618.1,0.0162
618.0,0.0162
617.9,0.0157
617.8,0.0159
617.7,0.0159
617.6,0.0158
617.5,0.0162
617.4,0.0159
617.3,0.0158
617.2,0.0155
617.1,0.0158
617.0,0.0160
616.9,0.0158
616.8,0.0156
616.7,0.0159
616.6,0.0157
616.5,0.0159
616.4,0.0162
616.3,0.0161
616.2,0.0161
616.1,0.0163
616.0,0.0159
615.9,0.0155
615.8,0.0157
615.7,0.0160
615.6,0.0158
615.5,0.0160
615.4,0.0160
615.3,0.0157
615.2,0.0154
615.1,0.0160
615.0,0.0157
614.9,0.0159
614.8,0.0165
614.7,0.0160
614.6,0.0161
614.5,0.0160
614.4,0.0161
614.3,0.0155
614.2,0.0158
614.1,0.0155
614.0,0.0156
613.9,0.0155
613.8,0.0151
613.7,0.0156
613.6,0.0157
613.5,0.0154
613.4,0.0157
613.3,0.0154
613.2,0.0159
613.1,0.0153
613.0,0.0152
612.9,0.0159
612.8,0.0155
612.7,0.0161
612.6,0.0153
612.5,0.0160
612.4,0.0153
612.3,0.0156
612.2,0.0159
612.1,0.0157
612.0,0.0159
611.9,0.0156
611.8,0.0154
611.7,0.0157
611.6,0.0150
611.5,0.0151
611.4,0.0153
611.3,0.0158
611.2,0.0151
611.1,0.0151
611.0,0.0153
610.9,0.0156
610.8,0.0153
610.7,0.0156
610.6,0.0156
610.5,0.0153
610.4,0.0151
610.3,0.0152
610.2,0.0155
610.1,0.0154
610.0,0.0154
609.9,0.0148
609.8,0.0149
609.7,0.0152
609.6,0.0151
609.5,0.0151
609.4,0.0149
609.3,0.0151
609.2,0.0154
609.1,0.0153
609.0,0.0153
608.9,0.0154
608.8,0.0153
608.7,0.0152
608.6,0.0152
608.5,0.0151
608.4,0.0148
608.3,0.0151
608.2,0.0151
608.1,0.0145
608.0,0.0149
607.9,0.0146
607.8,0.0146
607.7,0.0147
607.6,0.0148
607.5,0.0149
607.4,0.0150
607.3,0.0146
607.2,0.0146
607.1,0.0146
607.0,0.0148
606.9,0.0147
606.8,0.0148
606.7,0.0146
606.6,0.0145
606.5,0.0146
606.4,0.0148
606.3,0.0149
606.2,0.0149
606.1,0.0151
606.0,0.0149
605.9,0.0146
605.8,0.0145
605.7,0.0147
605.6,0.0146
605.5,0.0147
605.4,0.0148
605.3,0.0145
605.2,0.0146
605.1,0.0147
605.0,0.0148
604.9,0.0148
604.8,0.0146
604.7,0.0147
604.6,0.0145
604.5,0.0145
604.4,0.0143
604.3,0.0141
604.2,0.0143
604.1,0.0142
604.0,0.0144
603.9,0.0143
603.8,0.0143
603.7,0.0142
603.6,0.0142
603.5,0.0142
603.4,0.0142
603.3,0.0139
603.2,0.0140
603.1,0.0142
603.0,0.0142
602.9,0.0143
602.8,0.0140
602.7,0.0141
602.6,0.0143
602.5,0.0142
602.4,0.0139
602.3,0.0138
602.2,0.0138
602.1,0.0137
602.0,0.0140
601.9,0.0139
601.8,0.0142
601.7,0.0142
601.6,0.0137
601.5,0.0136
601.4,0.0136
601.3,0.0136
601.2,0.0135
601.1,0.0137
601.0,0.0138
600.9,0.0137
600.8,0.0136
600.7,0.0136
600.6,0.0135
600.5,0.0135
600.4,0.0134
600.3,0.0136
600.2,0.0136
600.1,0.0135
600.0,0.0138
599.9,0.0139
599.8,0.0137
599.7,0.0135
599.6,0.0136
599.5,0.0136
599.4,0.0135
599.3,0.0136
599.2,0.0134
599.1,0.0134
599.0,0.0133
598.9,0.0135
598.8,0.0136
598.7,0.0132
598.6,0.0134
598.5,0.0139
598.4,0.0135
598.3,0.0132
598.2,0.0135
598.1,0.0133
598.0,0.0132
597.9,0.0135
597.8,0.0133
597.7,0.0133
597.6,0.0133
597.5,0.0134
597.4,0.0133
597.3,0.0129
597.2,0.0128
597.1,0.0131
597.0,0.0130
596.9,0.0129
596.8,0.0128
596.7,0.0131
596.6,0.0131
596.5,0.0128
596.4,0.0130
596.3,0.0129
596.2,0.0129
596.1,0.0132
596.0,0.0132
595.9,0.0130
595.8,0.0129
595.7,0.0130
595.6,0.0129
595.5,0.0130
595.4,0.0128
595.3,0.0127
595.2,0.0129
595.1,0.0129
595.0,0.0130
594.9,0.0129
594.8,0.0130
594.7,0.0128
594.6,0.0124
594.5,0.0125
594.4,0.0128
594.3,0.0129
594.2,0.0127
594.1,0.0128
594.0,0.0128
593.9,0.0126
593.8,0.0127
593.7,0.0128
593.6,0.0122
593.5,0.0126
593.4,0.0123
593.3,0.0125
593.2,0.0124
593.1,0.0122
593.0,0.0121
592.9,0.0125
592.8,0.0126
592.7,0.0129
592.6,0.0125
592.5,0.0124
592.4,0.0124
592.3,0.0125
592.2,0.0126
592.1,0.0128
592.0,0.0125
591.9,0.0123
591.8,0.0122
591.7,0.0127
591.6,0.0122
591.5,0.0127
591.4,0.0123
591.3,0.0127
591.2,0.0125
591.1,0.0123
591.0,0.0123
590.9,0.0122
590.8,0.0122
590.7,0.0124
590.6,0.0126
590.5,0.0122
590.4,0.0122
590.3,0.0119
590.2,0.0125
590.1,0.0122
590.0,0.0121
589.9,0.0120
589.8,0.0123
589.7,0.0121
589.6,0.0121
589.5,0.0122
589.4,0.0122
589.3,0.0122
589.2,0.0119
589.1,0.0119
589.0,0.0115
588.9,0.0122
588.8,0.0122
588.7,0.0123
588.6,0.0123
588.5,0.0119
588.4,0.0119
588.3,0.0120
588.2,0.0118
588.1,0.0120
588.0,0.0121
587.9,0.0119
587.8,0.0123
587.7,0.0122
587.6,0.0119
587.5,0.0123
587.4,0.0119
587.3,0.0118
587.2,0.0118
587.1,0.0119
587.0,0.0117
586.9,0.0114
586.8,0.0120
586.7,0.0123
586.6,0.0120
586.5,0.0117
586.4,0.0120
586.3,0.0117
586.2,0.0116
586.1,0.0120
586.0,0.0117
585.9,0.0117
585.8,0.0115
585.7,0.0116
585.6,0.0113
585.5,0.0114
585.4,0.0114
585.3,0.0111
585.2,0.0113
585.1,0.0118
585.0,0.0116
584.9,0.0117
584.8,0.0118
584.7,0.0116
584.6,0.0114
584.5,0.0117
584.4,0.0116
584.3,0.0115
584.2,0.0115
584.1,0.0113
584.0,0.0114
583.9,0.0114
583.8,0.0112
583.7,0.0116
583.6,0.0117
583.5,0.0117
583.4,0.0116
583.3,0.0115
583.2,0.0114
583.1,0.0116
583.0,0.0114
582.9,0.0113
582.8,0.0113
582.7,0.0111
582.6,0.0115
582.5,0.0110
582.4,0.0110
582.3,0.0111
582.2,0.0111
582.1,0.0112
582.0,0.0112
581.9,0.0111
581.8,0.0110
581.7,0.0112
581.6,0.0109
581.5,0.0114
581.4,0.0112
581.3,0.0113
581.2,0.0110
581.1,0.0109
581.0,0.0111
580.9,0.0113
580.8,0.0111
580.7,0.0110
580.6,0.0110
580.5,0.0111
580.4,0.0110
580.3,0.0108
580.2,0.0109
580.1,0.0109
580.0,0.0109
