Created as New Dataset,
nm,A
800.0,-0.0133
799.9,-0.0140
799.8,-0.0146
799.7,-0.0148
799.6,-0.0142
799.5,-0.0145
799.4,-0.0128
799.3,-0.0126
799.2,-0.0142
799.1,-0.0161
799.0,-0.0138
798.9,-0.0163
798.8,-0.0139
798.7,-0.0142
798.6,-0.0148
798.5,-0.0151
798.4,-0.0136
798.3,-0.0133
798.2,-0.0143
798.1,-0.0151
798.0,-0.0139
797.9,-0.0150
797.8,-0.0128
797.7,-0.0143
797.6,-0.0153
797.5,-0.0155
797.4,-0.0149
797.3,-0.0139
797.2,-0.0133
797.1,-0.0139
797.0,-0.0143
796.9,-0.0158
796.8,-0.0149
796.7,-0.0137
796.6,-0.0132
796.5,-0.0137
796.4,-0.0132
796.3,-0.0143
796.2,-0.0150
796.1,-0.0142
796.0,-0.0141
795.9,-0.0147
795.8,-0.0147
795.7,-0.0150
795.6,-0.0160
795.5,-0.0158
795.4,-0.0157
795.3,-0.0156
795.2,-0.0153
795.1,-0.0159
795.0,-0.0153
794.9,-0.0156
794.8,-0.0162
794.7,-0.0155
794.6,-0.0146
794.5,-0.0149
794.4,-0.0161
794.3,-0.0155
794.2,-0.0151
794.1,-0.0153
794.0,-0.0153
793.9,-0.0149
793.8,-0.0156
793.7,-0.0162
793.6,-0.0154
793.5,-0.0166
793.4,-0.0171
793.3,-0.0162
793.2,-0.0159
793.1,-0.0158
793.0,-0.0164
792.9,-0.0167
792.8,-0.0166
792.7,-0.0169
792.6,-0.0169
792.5,-0.0171
792.4,-0.0163
792.3,-0.0160
792.2,-0.0164
792.1,-0.0174
792.0,-0.0171
791.9,-0.0165
791.8,-0.0170
791.7,-0.0182
791.6,-0.0178
791.5,-0.0182
791.4,-0.0182
791.3,-0.0173
791.2,-0.0176
791.1,-0.0181
791.0,-0.0175
790.9,-0.0176
790.8,-0.0175
790.7,-0.0173
790.6,-0.0178
790.5,-0.0186
790.4,-0.0186
790.3,-0.0178
790.2,-0.0172
790.1,-0.0174
790.0,-0.0170
789.9,-0.0180
789.8,-0.0187
789.7,-0.0188
789.6,-0.0191
789.5,-0.0181
789.4,-0.0178
789.3,-0.0188
789.2,-0.0189
789.1,-0.0185
789.0,-0.0187
788.9,-0.0193
788.8,-0.0195
788.7,-0.0195
788.6,-0.0196
788.5,-0.0198
788.4,-0.0197
788.3,-0.0192
788.2,-0.0195
788.1,-0.0196
788.0,-0.0191
787.9,-0.0194
787.8,-0.0190
787.7,-0.0188
787.6,-0.0192
787.5,-0.0189
787.4,-0.0190
787.3,-0.0195
787.2,-0.0191
787.1,-0.0187
787.0,-0.0189
786.9,-0.0190
786.8,-0.0192
786.7,-0.0196
786.6,-0.0200
786.5,-0.0204
786.4,-0.0199
786.3,-0.0194
786.2,-0.0195
786.1,-0.0204
786.0,-0.0202
785.9,-0.0196
785.8,-0.0202
785.7,-0.0208
785.6,-0.0203
785.5,-0.0199
785.4,-0.0205
785.3,-0.0201
785.2,-0.0201
785.1,-0.0196
785.0,-0.0212
784.9,-0.0208
784.8,-0.0203
784.7,-0.0210
784.6,-0.0204
784.5,-0.0199
784.4,-0.0197
784.3,-0.0197
784.2,-0.0204
784.1,-0.0200
784.0,-0.0202
783.9,-0.0196
783.8,-0.0195
783.7,-0.0201
783.6,-0.0200
783.5,-0.0201
783.4,-0.0196
783.3,-0.0203
783.2,-0.0199
783.1,-0.0200
783.0,-0.0195
782.9,-0.0199
782.8,-0.0206
782.7,-0.0204
782.6,-0.0208
782.5,-0.0202
782.4,-0.0196
782.3,-0.0196
782.2,-0.0204
782.1,-0.0207
782.0,-0.0199
781.9,-0.0196
781.8,-0.0186
781.7,-0.0205
781.6,-0.0204
781.5,-0.0211
781.4,-0.0209
781.3,-0.0192
781.2,-0.0199
781.1,-0.0203
781.0,-0.0204
780.9,-0.0203
780.8,-0.0203
780.7,-0.0200
780.6,-0.0201
780.5,-0.0204
780.4,-0.0198
780.3,-0.0203
780.2,-0.0203
780.1,-0.0198
780.0,-0.0196
779.9,-0.0192
779.8,-0.0194
779.7,-0.0205
779.6,-0.0206
779.5,-0.0194
779.4,-0.0195
779.3,-0.0198
779.2,-0.0193
779.1,-0.0200
779.0,-0.0197
778.9,-0.0197
778.8,-0.0197
778.7,-0.0199
778.6,-0.0206
778.5,-0.0194
778.4,-0.0203
778.3,-0.0192
778.2,-0.0189
778.1,-0.0202
778.0,-0.0200
777.9,-0.0203
777.8,-0.0206
777.7,-0.0201
777.6,-0.0191
777.5,-0.0196
777.4,-0.0196
777.3,-0.0189
777.2,-0.0197
777.1,-0.0190
777.0,-0.0200
776.9,-0.0192
776.8,-0.0199
776.7,-0.0205
776.6,-0.0189
776.5,-0.0205
776.4,-0.0205
776.3,-0.0200
776.2,-0.0213
776.1,-0.0203
776.0,-0.0201
775.9,-0.0200
775.8,-0.0189
775.7,-0.0202
775.6,-0.0208
775.5,-0.0202
775.4,-0.0203
775.3,-0.0184
775.2,-0.0200
775.1,-0.0197
775.0,-0.0197
774.9,-0.0196
774.8,-0.0197
774.7,-0.0194
774.6,-0.0190
774.5,-0.0193
774.4,-0.0202
774.3,-0.0198
774.2,-0.0201
774.1,-0.0191
774.0,-0.0199
773.9,-0.0201
773.8,-0.0205
773.7,-0.0197
773.6,-0.0193
773.5,-0.0202
773.4,-0.0201
773.3,-0.0191
773.2,-0.0191
773.1,-0.0194
773.0,-0.0195
772.9,-0.0198
772.8,-0.0199
772.7,-0.0203
772.6,-0.0200
772.5,-0.0199
772.4,-0.0198
772.3,-0.0199
772.2,-0.0197
772.1,-0.0195
772.0,-0.0196
771.9,-0.0204
771.8,-0.0191
771.7,-0.0193
771.6,-0.0203
771.5,-0.0190
771.4,-0.0200
771.3,-0.0200
771.2,-0.0198
771.1,-0.0187
771.0,-0.0190
770.9,-0.0201
770.8,-0.0194
770.7,-0.0190
770.6,-0.0185
770.5,-0.0191
770.4,-0.0200
770.3,-0.0194
770.2,-0.0193
770.1,-0.0182
770.0,-0.0179
769.9,-0.0187
769.8,-0.0188
769.7,-0.0184
769.6,-0.0191
769.5,-0.0185
769.4,-0.0181
769.3,-0.0186
769.2,-0.0185
769.1,-0.0181
769.0,-0.0180
768.9,-0.0183
768.8,-0.0176
768.7,-0.0173
768.6,-0.0184
768.5,-0.0186
768.4,-0.0185
768.3,-0.0176
768.2,-0.0174
768.1,-0.0170
768.0,-0.0166
767.9,-0.0169
767.8,-0.0171
767.7,-0.0167
767.6,-0.0168
767.5,-0.0164
767.4,-0.0155
767.3,-0.0159
767.2,-0.0161
767.1,-0.0169
767.0,-0.0174
766.9,-0.0168
766.8,-0.0160
766.7,-0.0159
766.6,-0.0155
766.5,-0.0149
766.4,-0.0151
766.3,-0.0152
766.2,-0.0151
766.1,-0.0152
766.0,-0.0151
765.9,-0.0145
765.8,-0.0146
765.7,-0.0151
765.6,-0.0146
765.5,-0.0141
765.4,-0.0137
765.3,-0.0133
765.2,-0.0133
765.1,-0.0139
765.0,-0.0135
764.9,-0.0129
764.8,-0.0130
764.7,-0.0134
764.6,-0.0137
764.5,-0.0137
764.4,-0.0132
764.3,-0.0131
764.2,-0.0133
764.1,-0.0130
764.0,-0.0129
763.9,-0.0126
763.8,-0.0123
763.7,-0.0122
763.6,-0.0127
763.5,-0.0124
763.4,-0.0118
763.3,-0.0113
763.2,-0.0118
763.1,-0.0119
763.0,-0.0113
762.9,-0.0118
762.8,-0.0115
762.7,-0.0111
762.6,-0.0121
762.5,-0.0117
762.4,-0.0111
762.3,-0.0109
762.2,-0.0113
762.1,-0.0117
762.0,-0.0108
761.9,-0.0108
761.8,-0.0114
761.7,-0.0117
761.6,-0.0115
761.5,-0.0105
761.4,-0.0108
761.3,-0.0109
761.2,-0.0113
761.1,-0.0112
761.0,-0.0106
760.9,-0.0116
760.8,-0.0116
760.7,-0.0120
760.6,-0.0112
760.5,-0.0114
760.4,-0.0120
760.3,-0.0121
760.2,-0.0126
760.1,-0.0121
760.0,-0.0120
759.9,-0.0128
759.8,-0.0130
759.7,-0.0126
759.6,-0.0126
759.5,-0.0125
759.4,-0.0130
759.3,-0.0124
759.2,-0.0126
759.1,-0.0137
759.0,-0.0143
758.9,-0.0139
758.8,-0.0145
758.7,-0.0138
758.6,-0.0137
758.5,-0.0135
758.4,-0.0142
758.3,-0.0151
758.2,-0.0149
758.1,-0.0141
758.0,-0.0146
757.9,-0.0158
757.8,-0.0145
757.7,-0.0157
757.6,-0.0159
757.5,-0.0156
757.4,-0.0155
757.3,-0.0163
757.2,-0.0160
757.1,-0.0165
757.0,-0.0166
756.9,-0.0165
756.8,-0.0173
756.7,-0.0174
756.6,-0.0171
756.5,-0.0175
756.4,-0.0184
756.3,-0.0186
756.2,-0.0184
756.1,-0.0189
756.0,-0.0187
755.9,-0.0197
755.8,-0.0200
755.7,-0.0194
755.6,-0.0194
755.5,-0.0188
755.4,-0.0199
755.3,-0.0197
755.2,-0.0203
755.1,-0.0209
755.0,-0.0213
754.9,-0.0216
754.8,-0.0212
754.7,-0.0218
754.6,-0.0209
754.5,-0.0211
754.4,-0.0223
754.3,-0.0210
754.2,-0.0222
754.1,-0.0224
754.0,-0.0223
753.9,-0.0226
753.8,-0.0238
753.7,-0.0233
753.6,-0.0226
753.5,-0.0236
753.4,-0.0231
753.3,-0.0235
753.2,-0.0238
753.1,-0.0233
753.0,-0.0241
752.9,-0.0249
752.8,-0.0241
752.7,-0.0250
752.6,-0.0249
752.5,-0.0249
752.4,-0.0244
752.3,-0.0247
752.2,-0.0252
752.1,-0.0253
752.0,-0.0252
751.9,-0.0249
751.8,-0.0256
751.7,-0.0260
751.6,-0.0256
751.5,-0.0260
751.4,-0.0259
751.3,-0.0259
751.2,-0.0259
751.1,-0.0269
751.0,-0.0260
750.9,-0.0263
750.8,-0.0268
750.7,-0.0264
750.6,-0.0266
750.5,-0.0269
750.4,-0.0266
750.3,-0.0266
750.2,-0.0267
750.1,-0.0276
750.0,-0.0265
749.9,-0.0269
749.8,-0.0268
749.7,-0.0270
749.6,-0.0269
749.5,-0.0267
749.4,-0.0272
749.3,-0.0263
749.2,-0.0267
749.1,-0.0268
749.0,-0.0268
748.9,-0.0271
748.8,-0.0274
748.7,-0.0268
748.6,-0.0273
748.5,-0.0271
748.4,-0.0271
748.3,-0.0268
748.2,-0.0269
748.1,-0.0265
748.0,-0.0276
747.9,-0.0275
747.8,-0.0269
747.7,-0.0269
747.6,-0.0259
747.5,-0.0265
747.4,-0.0269
747.3,-0.0271
747.2,-0.0271
747.1,-0.0267
747.0,-0.0269
746.9,-0.0271
746.8,-0.0277
746.7,-0.0273
746.6,-0.0271
746.5,-0.0275
746.4,-0.0274
746.3,-0.0277
746.2,-0.0272
746.1,-0.0279
746.0,-0.0279
745.9,-0.0268
745.8,-0.0268
745.7,-0.0273
745.6,-0.0267
745.5,-0.0268
745.4,-0.0268
745.3,-0.0268
745.2,-0.0273
745.1,-0.0271
745.0,-0.0265
744.9,-0.0271
744.8,-0.0270
744.7,-0.0267
744.6,-0.0271
744.5,-0.0274
744.4,-0.0276
744.3,-0.0274
744.2,-0.0270
744.1,-0.0271
744.0,-0.0276
743.9,-0.0279
743.8,-0.0277
743.7,-0.0269
743.6,-0.0272
743.5,-0.0275
743.4,-0.0274
743.3,-0.0271
743.2,-0.0268
743.1,-0.0273
743.0,-0.0279
742.9,-0.0286
742.8,-0.0283
742.7,-0.0279
742.6,-0.0281
742.5,-0.0281
742.4,-0.0278
742.3,-0.0273
742.2,-0.0274
742.1,-0.0280
742.0,-0.0279
741.9,-0.0280
741.8,-0.0280
741.7,-0.0274
741.6,-0.0276
741.5,-0.0279
741.4,-0.0278
741.3,-0.0275
741.2,-0.0276
741.1,-0.0282
741.0,-0.0279
740.9,-0.0276
740.8,-0.0279
740.7,-0.0276
740.6,-0.0273
740.5,-0.0272
740.4,-0.0272
740.3,-0.0272
740.2,-0.0277
740.1,-0.0276
740.0,-0.0278
739.9,-0.0274
739.8,-0.0273
739.7,-0.0273
739.6,-0.0271
739.5,-0.0272
739.4,-0.0271
739.3,-0.0273
739.2,-0.0274
739.1,-0.0271
739.0,-0.0274
738.9,-0.0267
738.8,-0.0263
738.7,-0.0269
738.6,-0.0271
738.5,-0.0268
738.4,-0.0264
738.3,-0.0258
738.2,-0.0264
738.1,-0.0265
738.0,-0.0261
737.9,-0.0259
737.8,-0.0260
737.7,-0.0260
737.6,-0.0253
737.5,-0.0260
737.4,-0.0265
737.3,-0.0256
737.2,-0.0253
737.1,-0.0259
737.0,-0.0251
736.9,-0.0246
736.8,-0.0245
736.7,-0.0245
736.6,-0.0239
736.5,-0.0243
736.4,-0.0232
736.3,-0.0237
736.2,-0.0239
736.1,-0.0236
736.0,-0.0234
735.9,-0.0228
735.8,-0.0225
735.7,-0.0229
735.6,-0.0232
735.5,-0.0226
735.4,-0.0224
735.3,-0.0217
735.2,-0.0221
735.1,-0.0215
735.0,-0.0213
734.9,-0.0219
734.8,-0.0212
734.7,-0.0202
734.6,-0.0203
734.5,-0.0199
734.4,-0.0204
734.3,-0.0206
734.2,-0.0198
734.1,-0.0201
734.0,-0.0203
733.9,-0.0202
733.8,-0.0193
733.7,-0.0196
733.6,-0.0192
733.5,-0.0188
733.4,-0.0188
733.3,-0.0194
733.2,-0.0188
733.1,-0.0186
733.0,-0.0183
732.9,-0.0185
732.8,-0.0184
732.7,-0.0180
732.6,-0.0182
732.5,-0.0179
732.4,-0.0180
732.3,-0.0173
732.2,-0.0172
732.1,-0.0180
732.0,-0.0174
731.9,-0.0177
731.8,-0.0169
731.7,-0.0165
731.6,-0.0166
731.5,-0.0171
731.4,-0.0171
731.3,-0.0171
731.2,-0.0168
731.1,-0.0169
731.0,-0.0178
730.9,-0.0175
730.8,-0.0169
730.7,-0.0168
730.6,-0.0185
730.5,-0.0175
730.4,-0.0171
730.3,-0.0178
730.2,-0.0175
730.1,-0.0163
730.0,-0.0178
729.9,-0.0178
729.8,-0.0177
729.7,-0.0179
729.6,-0.0174
729.5,-0.0177
729.4,-0.0185
729.3,-0.0175
729.2,-0.0186
729.1,-0.0183
729.0,-0.0175
728.9,-0.0189
728.8,-0.0182
728.7,-0.0184
728.6,-0.0186
728.5,-0.0186
728.4,-0.0185
728.3,-0.0188
728.2,-0.0193
728.1,-0.0189
728.0,-0.0188
727.9,-0.0188
727.8,-0.0198
727.7,-0.0190
727.6,-0.0195
727.5,-0.0193
727.4,-0.0200
727.3,-0.0201
727.2,-0.0201
727.1,-0.0202
727.0,-0.0213
726.9,-0.0208
726.8,-0.0212
726.7,-0.0211
726.6,-0.0210
726.5,-0.0218
726.4,-0.0210
726.3,-0.0213
726.2,-0.0212
726.1,-0.0215
726.0,-0.0219
725.9,-0.0218
725.8,-0.0217
725.7,-0.0220
725.6,-0.0224
725.5,-0.0220
725.4,-0.0225
725.3,-0.0229
725.2,-0.0220
725.1,-0.0225
725.0,-0.0228
724.9,-0.0233
724.8,-0.0229
724.7,-0.0226
724.6,-0.0230
724.5,-0.0232
724.4,-0.0236
724.3,-0.0236
724.2,-0.0231
724.1,-0.0231
724.0,-0.0240
723.9,-0.0235
723.8,-0.0238
723.7,-0.0241
723.6,-0.0240
723.5,-0.0239
723.4,-0.0244
723.3,-0.0239
723.2,-0.0244
723.1,-0.0240
723.0,-0.0237
722.9,-0.0237
722.8,-0.0241
722.7,-0.0242
722.6,-0.0247
722.5,-0.0247
722.4,-0.0246
722.3,-0.0246
722.2,-0.0247
722.1,-0.0242
722.0,-0.0241
721.9,-0.0247
721.8,-0.0247
721.7,-0.0248
721.6,-0.0248
721.5,-0.0245
721.4,-0.0246
721.3,-0.0246
721.2,-0.0243
721.1,-0.0246
721.0,-0.0249
720.9,-0.0245
720.8,-0.0251
720.7,-0.0253
720.6,-0.0250
720.5,-0.0250
720.4,-0.0254
720.3,-0.0253
720.2,-0.0253
720.1,-0.0253
720.0,-0.0251
719.9,-0.0253
719.8,-0.0256
719.7,-0.0250
719.6,-0.0250
719.5,-0.0253
719.4,-0.0255
719.3,-0.0259
719.2,-0.0259
719.1,-0.0256
719.0,-0.0255
718.9,-0.0254
718.8,-0.0252
718.7,-0.0251
718.6,-0.0256
718.5,-0.0255
718.4,-0.0255
718.3,-0.0259
718.2,-0.0263
718.1,-0.0260
718.0,-0.0254
717.9,-0.0250
717.8,-0.0246
717.7,-0.0250
717.6,-0.0251
717.5,-0.0250
717.4,-0.0254
717.3,-0.0254
717.2,-0.0249
717.1,-0.0242
717.0,-0.0238
716.9,-0.0244
716.8,-0.0246
716.7,-0.0242
716.6,-0.0242
716.5,-0.0241
716.4,-0.0237
716.3,-0.0241
716.2,-0.0239
716.1,-0.0233
716.0,-0.0231
715.9,-0.0232
715.8,-0.0233
715.7,-0.0228
715.6,-0.0234
715.5,-0.0231
715.4,-0.0227
715.3,-0.0229
715.2,-0.0226
715.1,-0.0221
715.0,-0.0219
714.9,-0.0218
714.8,-0.0220
714.7,-0.0215
714.6,-0.0215
714.5,-0.0213
714.4,-0.0211
714.3,-0.0209
714.2,-0.0209
714.1,-0.0210
714.0,-0.0210
713.9,-0.0210
713.8,-0.0202
713.7,-0.0203
713.6,-0.0204
713.5,-0.0199
713.4,-0.0201
713.3,-0.0203
713.2,-0.0201
713.1,-0.0192
713.0,-0.0196
712.9,-0.0196
712.8,-0.0197
712.7,-0.0195
712.6,-0.0199
712.5,-0.0195
712.4,-0.0194
712.3,-0.0195
712.2,-0.0189
712.1,-0.0194
712.0,-0.0191
711.9,-0.0195
711.8,-0.0194
711.7,-0.0191
711.6,-0.0191
711.5,-0.0195
711.4,-0.0200
711.3,-0.0198
711.2,-0.0196
711.1,-0.0194
711.0,-0.0205
710.9,-0.0196
710.8,-0.0197
710.7,-0.0205
710.6,-0.0201
710.5,-0.0210
710.4,-0.0209
710.3,-0.0209
710.2,-0.0210
710.1,-0.0209
710.0,-0.0214
709.9,-0.0214
709.8,-0.0216
709.7,-0.0211
709.6,-0.0216
709.5,-0.0223
709.4,-0.0223
709.3,-0.0214
709.2,-0.0225
709.1,-0.0226
709.0,-0.0222
708.9,-0.0232
708.8,-0.0232
708.7,-0.0233
708.6,-0.0235
708.5,-0.0235
708.4,-0.0240
708.3,-0.0238
708.2,-0.0243
708.1,-0.0244
708.0,-0.0238
707.9,-0.0246
707.8,-0.0246
707.7,-0.0241
707.6,-0.0243
707.5,-0.0245
707.4,-0.0245
707.3,-0.0245
707.2,-0.0249
707.1,-0.0260
707.0,-0.0254
706.9,-0.0252
706.8,-0.0256
706.7,-0.0257
706.6,-0.0262
706.5,-0.0256
706.4,-0.0258
706.3,-0.0263
706.2,-0.0256
706.1,-0.0261
706.0,-0.0248
705.9,-0.0258
705.8,-0.0270
705.7,-0.0267
705.6,-0.0257
705.5,-0.0255
705.4,-0.0261
705.3,-0.0259
705.2,-0.0262
705.1,-0.0261
705.0,-0.0260
704.9,-0.0262
704.8,-0.0264
704.7,-0.0268
704.6,-0.0271
704.5,-0.0268
704.4,-0.0261
704.3,-0.0261
704.2,-0.0270
704.1,-0.0274
704.0,-0.0276
703.9,-0.0272
703.8,-0.0269
703.7,-0.0269
703.6,-0.0273
703.5,-0.0271
703.4,-0.0272
703.3,-0.0273
703.2,-0.0278
703.1,-0.0273
703.0,-0.0269
702.9,-0.0275
702.8,-0.0280
702.7,-0.0269
702.6,-0.0273
702.5,-0.0275
702.4,-0.0274
702.3,-0.0271
702.2,-0.0273
702.1,-0.0272
702.0,-0.0272
701.9,-0.0272
701.8,-0.0273
701.7,-0.0270
701.6,-0.0263
701.5,-0.0268
701.4,-0.0266
701.3,-0.0268
701.2,-0.0269
701.1,-0.0262
701.0,-0.0264
700.9,-0.0262
700.8,-0.0269
700.7,-0.0264
700.6,-0.0255
700.5,-0.0252
700.4,-0.0256
700.3,-0.0254
700.2,-0.0255
700.1,-0.0253
700.0,-0.0247
699.9,-0.0248
699.8,-0.0246
699.7,-0.0247
699.6,-0.0244
699.5,-0.0238
699.4,-0.0239
699.3,-0.0241
699.2,-0.0241
699.1,-0.0234
699.0,-0.0237
698.9,-0.0234
698.8,-0.0227
698.7,-0.0224
698.6,-0.0220
698.5,-0.0219
698.4,-0.0220
698.3,-0.0218
698.2,-0.0215
698.1,-0.0215
698.0,-0.0210
697.9,-0.0210
697.8,-0.0210
697.7,-0.0206
697.6,-0.0208
697.5,-0.0204
697.4,-0.0201
697.3,-0.0203
697.2,-0.0201
697.1,-0.0196
697.0,-0.0198
696.9,-0.0197
696.8,-0.0191
696.7,-0.0195
696.6,-0.0197
696.5,-0.0191
696.4,-0.0195
696.3,-0.0197
696.2,-0.0197
696.1,-0.0194
696.0,-0.0190
695.9,-0.0189
695.8,-0.0189
695.7,-0.0190
695.6,-0.0186
695.5,-0.0183
695.4,-0.0185
695.3,-0.0185
695.2,-0.0185
695.1,-0.0185
695.0,-0.0185
694.9,-0.0189
694.8,-0.0188
694.7,-0.0187
694.6,-0.0187
694.5,-0.0184
694.4,-0.0183
694.3,-0.0182
694.2,-0.0187
694.1,-0.0189
694.0,-0.0182
693.9,-0.0181
693.8,-0.0182
693.7,-0.0185
693.6,-0.0186
693.5,-0.0188
693.4,-0.0185
693.3,-0.0181
693.2,-0.0183
693.1,-0.0186
693.0,-0.0187
692.9,-0.0183
692.8,-0.0186
692.7,-0.0190
692.6,-0.0192
692.5,-0.0192
692.4,-0.0191
692.3,-0.0191
692.2,-0.0190
692.1,-0.0190
692.0,-0.0191
691.9,-0.0189
691.8,-0.0193
691.7,-0.0193
691.6,-0.0192
691.5,-0.0193
691.4,-0.0194
691.3,-0.0195
691.2,-0.0199
691.1,-0.0197
691.0,-0.0198
690.9,-0.0203
690.8,-0.0202
690.7,-0.0199
690.6,-0.0200
690.5,-0.0200
690.4,-0.0203
690.3,-0.0205
690.2,-0.0204
690.1,-0.0209
690.0,-0.0209
689.9,-0.0209
689.8,-0.0211
689.7,-0.0215
689.6,-0.0221
689.5,-0.0215
689.4,-0.0207
689.3,-0.0206
689.2,-0.0215
689.1,-0.0221
689.0,-0.0219
688.9,-0.0218
688.8,-0.0214
688.7,-0.0216
688.6,-0.0217
688.5,-0.0217
688.4,-0.0219
688.3,-0.0225
688.2,-0.0220
688.1,-0.0225
688.0,-0.0235
687.9,-0.0236
687.8,-0.0232
687.7,-0.0230
687.6,-0.0231
687.5,-0.0233
687.4,-0.0236
687.3,-0.0235
687.2,-0.0237
687.1,-0.0239
687.0,-0.0245
686.9,-0.0238
686.8,-0.0235
686.7,-0.0237
686.6,-0.0245
686.5,-0.0244
686.4,-0.0237
686.3,-0.0238
686.2,-0.0236
686.1,-0.0245
686.0,-0.0243
685.9,-0.0250
685.8,-0.0249
685.7,-0.0248
685.6,-0.0251
685.5,-0.0245
685.4,-0.0248
685.3,-0.0242
685.2,-0.0251
685.1,-0.0252
685.0,-0.0248
684.9,-0.0249
684.8,-0.0249
684.7,-0.0249
684.6,-0.0254
684.5,-0.0253
684.4,-0.0246
684.3,-0.0249
684.2,-0.0248
684.1,-0.0252
684.0,-0.0255
683.9,-0.0251
683.8,-0.0257
683.7,-0.0249
683.6,-0.0253
683.5,-0.0247
683.4,-0.0260
683.3,-0.0259
683.2,-0.0253
683.1,-0.0254
683.0,-0.0249
682.9,-0.0251
682.8,-0.0255
682.7,-0.0255
682.6,-0.0261
682.5,-0.0259
682.4,-0.0247
682.3,-0.0253
682.2,-0.0258
682.1,-0.0253
682.0,-0.0253
681.9,-0.0255
681.8,-0.0254
681.7,-0.0251
681.6,-0.0251
681.5,-0.0256
681.4,-0.0265
681.3,-0.0257
681.2,-0.0255
681.1,-0.0262
681.0,-0.0254
680.9,-0.0253
680.8,-0.0260
680.7,-0.0258
680.6,-0.0261
680.5,-0.0259
680.4,-0.0256
680.3,-0.0260
680.2,-0.0258
680.1,-0.0257
680.0,-0.0261
679.9,-0.0259
679.8,-0.0262
679.7,-0.0260
679.6,-0.0261
679.5,-0.0258
679.4,-0.0258
679.3,-0.0262
679.2,-0.0266
679.1,-0.0265
679.0,-0.0264
678.9,-0.0261
678.8,-0.0262
678.7,-0.0256
678.6,-0.0261
678.5,-0.0256
678.4,-0.0260
678.3,-0.0260
678.2,-0.0267
678.1,-0.0264
678.0,-0.0263
677.9,-0.0262
677.8,-0.0260
677.7,-0.0263
677.6,-0.0266
677.5,-0.0265
677.4,-0.0262
677.3,-0.0261
677.2,-0.0260
677.1,-0.0263
677.0,-0.0262
676.9,-0.0265
676.8,-0.0267
676.7,-0.0265
676.6,-0.0265
676.5,-0.0263
676.4,-0.0264
676.3,-0.0272
676.2,-0.0266
676.1,-0.0265
676.0,-0.0267
675.9,-0.0267
675.8,-0.0267
675.7,-0.0268
675.6,-0.0267
675.5,-0.0267
675.4,-0.0268
675.3,-0.0271
675.2,-0.0270
675.1,-0.0271
675.0,-0.0270
674.9,-0.0269
674.8,-0.0267
674.7,-0.0265
674.6,-0.0269
674.5,-0.0268
674.4,-0.0269
674.3,-0.0266
674.2,-0.0266
674.1,-0.0266
674.0,-0.0264
673.9,-0.0264
673.8,-0.0266
673.7,-0.0269
673.6,-0.0263
673.5,-0.0264
673.4,-0.0263
673.3,-0.0267
673.2,-0.0269
673.1,-0.0265
673.0,-0.0265
672.9,-0.0265
672.8,-0.0265
672.7,-0.0267
672.6,-0.0265
672.5,-0.0266
672.4,-0.0265
672.3,-0.0264
672.2,-0.0265
672.1,-0.0270
672.0,-0.0270
671.9,-0.0267
671.8,-0.0267
671.7,-0.0268
671.6,-0.0263
671.5,-0.0261
671.4,-0.0262
671.3,-0.0260
671.2,-0.0261
671.1,-0.0262
671.0,-0.0264
670.9,-0.0264
670.8,-0.0262
670.7,-0.0262
670.6,-0.0262
670.5,-0.0264
670.4,-0.0263
670.3,-0.0260
670.2,-0.0259
670.1,-0.0258
670.0,-0.0258
669.9,-0.0259
669.8,-0.0260
669.7,-0.0260
669.6,-0.0263
669.5,-0.0263
669.4,-0.0259
669.3,-0.0260
669.2,-0.0258
669.1,-0.0255
669.0,-0.0253
668.9,-0.0255
668.8,-0.0258
668.7,-0.0260
668.6,-0.0255
668.5,-0.0255
668.4,-0.0258
668.3,-0.0254
668.2,-0.0261
668.1,-0.0255
668.0,-0.0255
667.9,-0.0253
667.8,-0.0255
667.7,-0.0256
667.6,-0.0259
667.5,-0.0257
667.4,-0.0251
667.3,-0.0253
667.2,-0.0251
667.1,-0.0253
667.0,-0.0253
666.9,-0.0256
666.8,-0.0257
666.7,-0.0255
666.6,-0.0253
666.5,-0.0250
666.4,-0.0249
666.3,-0.0247
666.2,-0.0247
666.1,-0.0247
666.0,-0.0249
665.9,-0.0252
665.8,-0.0249
665.7,-0.0245
665.6,-0.0248
665.5,-0.0252
665.4,-0.0251
665.3,-0.0250
665.2,-0.0250
665.1,-0.0250
665.0,-0.0250
664.9,-0.0252
664.8,-0.0250
664.7,-0.0252
664.6,-0.0247
664.5,-0.0252
664.4,-0.0252
664.3,-0.0249
664.2,-0.0247
664.1,-0.0250
664.0,-0.0247
663.9,-0.0245
663.8,-0.0249
663.7,-0.0248
663.6,-0.0250
663.5,-0.0249
663.4,-0.0244
663.3,-0.0249
663.2,-0.0246
663.1,-0.0246
663.0,-0.0244
662.9,-0.0246
662.8,-0.0243
662.7,-0.0242
662.6,-0.0247
662.5,-0.0245
662.4,-0.0248
662.3,-0.0240
662.2,-0.0246
662.1,-0.0252
662.0,-0.0248
661.9,-0.0245
661.8,-0.0248
661.7,-0.0243
661.6,-0.0244
661.5,-0.0242
661.4,-0.0243
661.3,-0.0243
661.2,-0.0244
661.1,-0.0237
661.0,-0.0243
660.9,-0.0247
660.8,-0.0248
660.7,-0.0246
660.6,-0.0245
660.5,-0.0241
660.4,-0.0244
660.3,-0.0240
660.2,-0.0248
660.1,-0.0244
660.0,-0.0241
659.9,-0.0239
659.8,-0.0242
659.7,-0.0244
659.6,-0.0247
659.5,-0.0249
659.4,-0.0248
659.3,-0.0244
659.2,-0.0241
659.1,-0.0240
659.0,-0.0246
658.9,-0.0247
658.8,-0.0242
658.7,-0.0245
658.6,-0.0244
658.5,-0.0244
658.4,-0.0244
658.3,-0.0245
658.2,-0.0241
658.1,-0.0241
658.0,-0.0240
657.9,-0.0240
657.8,-0.0243
657.7,-0.0243
657.6,-0.0246
657.5,-0.0242
657.4,-0.0243
657.3,-0.0243
657.2,-0.0247
657.1,-0.0244
657.0,-0.0246
656.9,-0.0244
656.8,-0.0245
656.7,-0.0246
656.6,-0.0245
656.5,-0.0246
656.4,-0.0244
656.3,-0.0243
656.2,-0.0247
656.1,-0.0242
656.0,-0.0240
655.9,-0.0250
655.8,-0.0247
655.7,-0.0253
655.6,-0.0244
655.5,-0.0242
655.4,-0.0247
655.3,-0.0249
655.2,-0.0247
655.1,-0.0248
655.0,-0.0243
654.9,-0.0243
654.8,-0.0242
654.7,-0.0252
654.6,-0.0248
654.5,-0.0246
654.4,-0.0246
654.3,-0.0247
654.2,-0.0245
654.1,-0.0246
654.0,-0.0245
653.9,-0.0245
653.8,-0.0246
653.7,-0.0249
653.6,-0.0249
653.5,-0.0246
653.4,-0.0247
653.3,-0.0253
653.2,-0.0251
653.1,-0.0246
653.0,-0.0247
652.9,-0.0246
652.8,-0.0254
652.7,-0.0254
652.6,-0.0251
652.5,-0.0252
652.4,-0.0252
652.3,-0.0250
652.2,-0.0251
652.1,-0.0252
652.0,-0.0253
651.9,-0.0253
651.8,-0.0257
651.7,-0.0251
651.6,-0.0252
651.5,-0.0252
651.4,-0.0252
651.3,-0.0250
651.2,-0.0253
651.1,-0.0254
651.0,-0.0252
650.9,-0.0252
650.8,-0.0255
650.7,-0.0256
650.6,-0.0254
650.5,-0.0253
650.4,-0.0252
650.3,-0.0257
650.2,-0.0255
650.1,-0.0254
650.0,-0.0256
649.9,-0.0259
649.8,-0.0255
649.7,-0.0253
649.6,-0.0258
649.5,-0.0262
649.4,-0.0261
649.3,-0.0260
649.2,-0.0259
649.1,-0.0259
649.0,-0.0261
648.9,-0.0263
648.8,-0.0261
648.7,-0.0260
648.6,-0.0262
648.5,-0.0263
648.4,-0.0262
648.3,-0.0260
648.2,-0.0263
648.1,-0.0265
648.0,-0.0262
647.9,-0.0258
647.8,-0.0262
647.7,-0.0266
647.6,-0.0266
647.5,-0.0266
647.4,-0.0268
647.3,-0.0269
647.2,-0.0268
647.1,-0.0268
647.0,-0.0268
646.9,-0.0268
646.8,-0.0269
646.7,-0.0269
646.6,-0.0271
646.5,-0.0271
646.4,-0.0267
646.3,-0.0268
646.2,-0.0272
646.1,-0.0271
646.0,-0.0270
645.9,-0.0271
645.8,-0.0271
645.7,-0.0270
645.6,-0.0275
645.5,-0.0272
645.4,-0.0270
645.3,-0.0270
645.2,-0.0271
645.1,-0.0272
645.0,-0.0272
644.9,-0.0276
644.8,-0.0274
644.7,-0.0274
644.6,-0.0272
644.5,-0.0274
644.4,-0.0274
644.3,-0.0275
644.2,-0.0276
644.1,-0.0275
644.0,-0.0275
643.9,-0.0282
643.8,-0.0279
643.7,-0.0282
643.6,-0.0280
643.5,-0.0281
643.4,-0.0281
643.3,-0.0279
643.2,-0.0283
643.1,-0.0283
643.0,-0.0285
642.9,-0.0285
642.8,-0.0285
642.7,-0.0283
642.6,-0.0288
642.5,-0.0287
642.4,-0.0283
642.3,-0.0285
642.2,-0.0287
642.1,-0.0286
642.0,-0.0287
641.9,-0.0287
641.8,-0.0284
641.7,-0.0283
641.6,-0.0292
641.5,-0.0292
641.4,-0.0292
641.3,-0.0283
641.2,-0.0288
641.1,-0.0292
641.0,-0.0288
640.9,-0.0288
640.8,-0.0285
640.7,-0.0292
640.6,-0.0292
640.5,-0.0291
640.4,-0.0291
640.3,-0.0291
640.2,-0.0288
640.1,-0.0293
640.0,-0.0293
639.9,-0.0296
639.8,-0.0293
639.7,-0.0302
639.6,-0.0298
639.5,-0.0300
639.4,-0.0300
639.3,-0.0302
639.2,-0.0301
639.1,-0.0299
639.0,-0.0300
638.9,-0.0300
638.8,-0.0301
638.7,-0.0299
638.6,-0.0301
638.5,-0.0306
638.4,-0.0297
638.3,-0.0304
638.2,-0.0308
638.1,-0.0304
638.0,-0.0306
637.9,-0.0300
637.8,-0.0306
637.7,-0.0301
637.6,-0.0309
637.5,-0.0304
637.4,-0.0306
637.3,-0.0306
637.2,-0.0309
637.1,-0.0307
637.0,-0.0311
636.9,-0.0312
636.8,-0.0306
636.7,-0.0312
636.6,-0.0308
636.5,-0.0306
636.4,-0.0315
636.3,-0.0316
636.2,-0.0314
636.1,-0.0313
636.0,-0.0317
635.9,-0.0314
635.8,-0.0317
635.7,-0.0312
635.6,-0.0318
635.5,-0.0318
635.4,-0.0318
635.3,-0.0322
635.2,-0.0314
635.1,-0.0319
635.0,-0.0318
634.9,-0.0321
634.8,-0.0323
634.7,-0.0322
634.6,-0.0323
634.5,-0.0320
634.4,-0.0326
634.3,-0.0319
634.2,-0.0323
634.1,-0.0326
634.0,-0.0327
633.9,-0.0327
633.8,-0.0325
633.7,-0.0323
633.6,-0.0323
633.5,-0.0321
633.4,-0.0326
633.3,-0.0328
633.2,-0.0328
633.1,-0.0331
633.0,-0.0326
632.9,-0.0329
632.8,-0.0325
632.7,-0.0330
632.6,-0.0332
632.5,-0.0332
632.4,-0.0330
632.3,-0.0331
632.2,-0.0333
632.1,-0.0333
632.0,-0.0335
631.9,-0.0333
631.8,-0.0336
631.7,-0.0333
631.6,-0.0335
631.5,-0.0336
631.4,-0.0336
631.3,-0.0339
631.2,-0.0338
631.1,-0.0337
631.0,-0.0338
630.9,-0.0340
630.8,-0.0338
630.7,-0.0338
630.6,-0.0338
630.5,-0.0344
630.4,-0.0341
630.3,-0.0339
630.2,-0.0343
630.1,-0.0339
630.0,-0.0341
629.9,-0.0343
629.8,-0.0344
629.7,-0.0342
629.6,-0.0342
629.5,-0.0342
629.4,-0.0344
629.3,-0.0349
629.2,-0.0346
629.1,-0.0342
629.0,-0.0348
628.9,-0.0346
628.8,-0.0345
628.7,-0.0344
628.6,-0.0347
628.5,-0.0349
628.4,-0.0348
628.3,-0.0350
628.2,-0.0350
628.1,-0.0351
628.0,-0.0350
627.9,-0.0352
627.8,-0.0353
627.7,-0.0357
627.6,-0.0353
627.5,-0.0352
627.4,-0.0355
627.3,-0.0351
627.2,-0.0351
627.1,-0.0354
627.0,-0.0358
626.9,-0.0359
626.8,-0.0358
626.7,-0.0357
626.6,-0.0358
626.5,-0.0358
626.4,-0.0357
626.3,-0.0358
626.2,-0.0360
626.1,-0.0362
626.0,-0.0361
625.9,-0.0358
625.8,-0.0356
625.7,-0.0360
625.6,-0.0362
625.5,-0.0362
625.4,-0.0362
625.3,-0.0364
625.2,-0.0364
625.1,-0.0362
625.0,-0.0367
624.9,-0.0366
624.8,-0.0362
624.7,-0.0362
624.6,-0.0362
624.5,-0.0365
624.4,-0.0368
624.3,-0.0369
624.2,-0.0368
624.1,-0.0369
624.0,-0.0368
623.9,-0.0367
623.8,-0.0365
623.7,-0.0368
623.6,-0.0370
623.5,-0.0369
623.4,-0.0368
623.3,-0.0370
623.2,-0.0371
623.1,-0.0368
623.0,-0.0370
622.9,-0.0374
622.8,-0.0369
622.7,-0.0371
622.6,-0.0375
622.5,-0.0372
622.4,-0.0370
622.3,-0.0374
622.2,-0.0376
622.1,-0.0374
622.0,-0.0372
621.9,-0.0373
621.8,-0.0372
621.7,-0.0374
621.6,-0.0379
621.5,-0.0378
621.4,-0.0376
621.3,-0.0377
621.2,-0.0378
621.1,-0.0376
621.0,-0.0377
620.9,-0.0375
620.8,-0.0373
620.7,-0.0375
620.6,-0.0380
620.5,-0.0381
620.4,-0.0380
620.3,-0.0381
620.2,-0.0380
620.1,-0.0378
620.0,-0.0380
619.9,-0.0381
619.8,-0.0382
619.7,-0.0385
619.6,-0.0383
619.5,-0.0385
619.4,-0.0381
619.3,-0.0381
619.2,-0.0383
619.1,-0.0386
619.0,-0.0384
618.9,-0.0386
618.8,-0.0389
618.7,-0.0386
618.6,-0.0388
618.5,-0.0388
618.4,-0.0389
618.3,-0.0390
618.2,-0.0394
618.1,-0.0389
618.0,-0.0388
617.9,-0.0389
617.8,-0.0390
617.7,-0.0390
617.6,-0.0387
617.5,-0.0388
617.4,-0.0390
617.3,-0.0390
617.2,-0.0390
617.1,-0.0392
617.0,-0.0390
616.9,-0.0395
616.8,-0.0390
616.7,-0.0389
616.6,-0.0393
616.5,-0.0396
616.4,-0.0395
616.3,-0.0393
616.2,-0.0392
616.1,-0.0391
616.0,-0.0397
615.9,-0.0400
615.8,-0.0395
615.7,-0.0396
615.6,-0.0394
615.5,-0.0395
615.4,-0.0396
615.3,-0.0397
615.2,-0.0395
615.1,-0.0393
615.0,-0.0395
614.9,-0.0397
614.8,-0.0397
614.7,-0.0396
614.6,-0.0397
614.5,-0.0402
614.4,-0.0396
614.3,-0.0400
614.2,-0.0399
614.1,-0.0405
614.0,-0.0401
613.9,-0.0397
613.8,-0.0402
613.7,-0.0400
613.6,-0.0399
613.5,-0.0402
613.4,-0.0401
613.3,-0.0399
613.2,-0.0401
613.1,-0.0404
613.0,-0.0404
612.9,-0.0398
612.8,-0.0403
612.7,-0.0398
612.6,-0.0401
612.5,-0.0399
612.4,-0.0405
612.3,-0.0402
612.2,-0.0398
612.1,-0.0397
612.0,-0.0404
611.9,-0.0402
611.8,-0.0402
611.7,-0.0403
611.6,-0.0407
611.5,-0.0409
611.4,-0.0405
611.3,-0.0400
611.2,-0.0408
611.1,-0.0408
611.0,-0.0406
610.9,-0.0403
610.8,-0.0405
610.7,-0.0406
610.6,-0.0405
610.5,-0.0409
610.4,-0.0408
610.3,-0.0408
610.2,-0.0404
610.1,-0.0410
610.0,-0.0407
609.9,-0.0410
609.8,-0.0409
609.7,-0.0408
609.6,-0.0410
609.5,-0.0406
609.4,-0.0409
609.3,-0.0408
609.2,-0.0407
609.1,-0.0406
609.0,-0.0409
608.9,-0.0407
608.8,-0.0406
608.7,-0.0409
608.6,-0.0409
608.5,-0.0405
608.4,-0.0405
608.3,-0.0403
608.2,-0.0406
608.1,-0.0408
608.0,-0.0406
607.9,-0.0411
607.8,-0.0408
607.7,-0.0411
607.6,-0.0410
607.5,-0.0409
607.4,-0.0409
607.3,-0.0409
607.2,-0.0412
607.1,-0.0408
607.0,-0.0409
606.9,-0.0407
606.8,-0.0407
606.7,-0.0406
606.6,-0.0408
606.5,-0.0410
606.4,-0.0408
606.3,-0.0407
606.2,-0.0406
606.1,-0.0404
606.0,-0.0406
605.9,-0.0409
605.8,-0.0410
605.7,-0.0411
605.6,-0.0409
605.5,-0.0408
605.4,-0.0405
605.3,-0.0406
605.2,-0.0405
605.1,-0.0407
605.0,-0.0405
604.9,-0.0405
604.8,-0.0407
604.7,-0.0406
604.6,-0.0406
604.5,-0.0408
604.4,-0.0410
604.3,-0.0411
604.2,-0.0406
604.1,-0.0409
604.0,-0.0407
603.9,-0.0406
603.8,-0.0406
603.7,-0.0408
603.6,-0.0408
603.5,-0.0409
603.4,-0.0407
603.3,-0.0408
603.2,-0.0407
603.1,-0.0408
603.0,-0.0408
602.9,-0.0404
602.8,-0.0408
602.7,-0.0406
602.6,-0.0404
602.5,-0.0405
602.4,-0.0406
602.3,-0.0407
602.2,-0.0407
602.1,-0.0409
602.0,-0.0408
601.9,-0.0406
601.8,-0.0405
601.7,-0.0404
601.6,-0.0405
601.5,-0.0404
601.4,-0.0405
601.3,-0.0407
601.2,-0.0408
601.1,-0.0407
601.0,-0.0407
600.9,-0.0407
600.8,-0.0406
600.7,-0.0406
600.6,-0.0408
600.5,-0.0406
600.4,-0.0408
600.3,-0.0407
600.2,-0.0403
600.1,-0.0405
600.0,-0.0407
599.9,-0.0406
599.8,-0.0406
599.7,-0.0404
599.6,-0.0406
599.5,-0.0408
599.4,-0.0407
599.3,-0.0405
599.2,-0.0403
599.1,-0.0405
599.0,-0.0407
598.9,-0.0404
598.8,-0.0402
598.7,-0.0406
598.6,-0.0405
598.5,-0.0401
598.4,-0.0403
598.3,-0.0405
598.2,-0.0405
598.1,-0.0404
598.0,-0.0405
597.9,-0.0405
597.8,-0.0405
597.7,-0.0403
597.6,-0.0405
597.5,-0.0405
597.4,-0.0405
597.3,-0.0408
597.2,-0.0406
597.1,-0.0406
597.0,-0.0405
596.9,-0.0404
596.8,-0.0409
596.7,-0.0408
596.6,-0.0404
596.5,-0.0406
596.4,-0.0403
596.3,-0.0406
596.2,-0.0405
596.1,-0.0406
596.0,-0.0403
595.9,-0.0402
595.8,-0.0405
595.7,-0.0402
595.6,-0.0402
595.5,-0.0403
595.4,-0.0400
595.3,-0.0405
595.2,-0.0405
595.1,-0.0404
595.0,-0.0405
594.9,-0.0404
594.8,-0.0403
594.7,-0.0403
594.6,-0.0407
594.5,-0.0405
594.4,-0.0406
594.3,-0.0402
594.2,-0.0404
594.1,-0.0406
594.0,-0.0409
593.9,-0.0406
593.8,-0.0407
593.7,-0.0405
593.6,-0.0411
593.5,-0.0409
593.4,-0.0411
593.3,-0.0404
593.2,-0.0409
593.1,-0.0410
593.0,-0.0409
592.9,-0.0406
592.8,-0.0410
592.7,-0.0408
592.6,-0.0409
592.5,-0.0410
592.4,-0.0411
592.3,-0.0409
592.2,-0.0408
592.1,-0.0400
592.0,-0.0403
591.9,-0.0405
591.8,-0.0412
591.7,-0.0408
591.6,-0.0414
591.5,-0.0411
591.4,-0.0407
591.3,-0.0409
591.2,-0.0410
591.1,-0.0412
591.0,-0.0411
590.9,-0.0408
590.8,-0.0409
590.7,-0.0410
590.6,-0.0409
590.5,-0.0411
590.4,-0.0409
590.3,-0.0411
590.2,-0.0410
590.1,-0.0412
590.0,-0.0409
589.9,-0.0411
589.8,-0.0410
589.7,-0.0411
589.6,-0.0407
589.5,-0.0412
589.4,-0.0410
589.3,-0.0409
589.2,-0.0414
589.1,-0.0412
589.0,-0.0410
588.9,-0.0415
588.8,-0.0414
588.7,-0.0410
588.6,-0.0413
588.5,-0.0418
588.4,-0.0412
588.3,-0.0411
588.2,-0.0415
588.1,-0.0418
588.0,-0.0412
587.9,-0.0414
587.8,-0.0415
587.7,-0.0415
587.6,-0.0413
587.5,-0.0413
587.4,-0.0417
587.3,-0.0412
587.2,-0.0414
587.1,-0.0417
587.0,-0.0417
586.9,-0.0418
586.8,-0.0420
586.7,-0.0417
586.6,-0.0417
586.5,-0.0416
586.4,-0.0417
586.3,-0.0419
586.2,-0.0421
586.1,-0.0418
586.0,-0.0421
585.9,-0.0418
585.8,-0.0423
585.7,-0.0427
585.6,-0.0420
585.5,-0.0421
585.4,-0.0426
585.3,-0.0424
585.2,-0.0421
585.1,-0.0422
585.0,-0.0421
584.9,-0.0422
584.8,-0.0421
584.7,-0.0421
584.6,-0.0423
584.5,-0.0422
584.4,-0.0421
584.3,-0.0423
584.2,-0.0424
584.1,-0.0424
584.0,-0.0427
583.9,-0.0427
583.8,-0.0428
583.7,-0.0429
583.6,-0.0426
583.5,-0.0423
583.4,-0.0423
583.3,-0.0425
583.2,-0.0425
583.1,-0.0425
583.0,-0.0426
582.9,-0.0426
582.8,-0.0428
582.7,-0.0428
582.6,-0.0429
582.5,-0.0431
582.4,-0.0430
582.3,-0.0429
582.2,-0.0429
582.1,-0.0428
582.0,-0.0428
581.9,-0.0431
581.8,-0.0433
581.7,-0.0432
581.6,-0.0433
581.5,-0.0429
581.4,-0.0432
581.3,-0.0432
581.2,-0.0433
581.1,-0.0433
581.0,-0.0431
580.9,-0.0430
580.8,-0.0430
580.7,-0.0432
580.6,-0.0432
580.5,-0.0432
580.4,-0.0432
580.3,-0.0433
580.2,-0.0433
580.1,-0.0434
580.0,-0.0434
