Created as New Dataset,
nm,A
800.0,-0.0138
799.9,-0.0149
799.8,-0.0147
799.7,-0.0144
799.6,-0.0148
799.5,-0.0140
799.4,-0.0140
799.3,-0.0141
799.2,-0.0146
799.1,-0.0167
799.0,-0.0143
798.9,-0.0164
798.8,-0.0155
798.7,-0.0141
798.6,-0.0155
798.5,-0.0147
798.4,-0.0151
798.3,-0.0148
798.2,-0.0141
798.1,-0.0154
798.0,-0.0148
797.9,-0.0152
797.8,-0.0142
797.7,-0.0157
797.6,-0.0155
797.5,-0.0159
797.4,-0.0159
797.3,-0.0156
797.2,-0.0140
797.1,-0.0145
797.0,-0.0153
796.9,-0.0163
796.8,-0.0159
796.7,-0.0152
796.6,-0.0153
796.5,-0.0146
796.4,-0.0150
796.3,-0.0159
796.2,-0.0156
796.1,-0.0150
796.0,-0.0150
795.9,-0.0149
795.8,-0.0157
795.7,-0.0151
795.6,-0.0150
795.5,-0.0155
795.4,-0.0163
795.3,-0.0153
795.2,-0.0158
795.1,-0.0164
795.0,-0.0158
794.9,-0.0161
794.8,-0.0165
794.7,-0.0163
794.6,-0.0162
794.5,-0.0155
794.4,-0.0169
794.3,-0.0157
794.2,-0.0163
794.1,-0.0176
794.0,-0.0180
793.9,-0.0168
793.8,-0.0164
793.7,-0.0172
793.6,-0.0172
793.5,-0.0178
793.4,-0.0177
793.3,-0.0172
793.2,-0.0174
793.1,-0.0171
793.0,-0.0171
792.9,-0.0174
792.8,-0.0177
792.7,-0.0172
792.6,-0.0173
792.5,-0.0176
792.4,-0.0182
792.3,-0.0183
792.2,-0.0173
792.1,-0.0172
792.0,-0.0173
791.9,-0.0180
791.8,-0.0183
791.7,-0.0189
791.6,-0.0188
791.5,-0.0195
791.4,-0.0197
791.3,-0.0192
791.2,-0.0180
791.1,-0.0177
791.0,-0.0185
790.9,-0.0191
790.8,-0.0189
790.7,-0.0185
790.6,-0.0182
790.5,-0.0189
790.4,-0.0195
790.3,-0.0183
790.2,-0.0176
790.1,-0.0180
790.0,-0.0184
789.9,-0.0193
789.8,-0.0198
789.7,-0.0191
789.6,-0.0192
789.5,-0.0193
789.4,-0.0192
789.3,-0.0198
789.2,-0.0197
789.1,-0.0188
789.0,-0.0187
788.9,-0.0197
788.8,-0.0201
788.7,-0.0197
788.6,-0.0207
788.5,-0.0206
788.4,-0.0201
788.3,-0.0200
788.2,-0.0203
788.1,-0.0202
788.0,-0.0195
787.9,-0.0199
787.8,-0.0197
787.7,-0.0197
787.6,-0.0197
787.5,-0.0193
787.4,-0.0192
787.3,-0.0196
787.2,-0.0197
787.1,-0.0204
787.0,-0.0202
786.9,-0.0199
786.8,-0.0205
786.7,-0.0208
786.6,-0.0204
786.5,-0.0197
786.4,-0.0201
786.3,-0.0205
786.2,-0.0204
786.1,-0.0206
786.0,-0.0206
785.9,-0.0205
785.8,-0.0211
785.7,-0.0221
785.6,-0.0215
785.5,-0.0208
785.4,-0.0211
785.3,-0.0207
785.2,-0.0213
785.1,-0.0210
785.0,-0.0214
784.9,-0.0216
784.8,-0.0211
784.7,-0.0221
784.6,-0.0217
784.5,-0.0211
784.4,-0.0203
784.3,-0.0202
784.2,-0.0207
784.1,-0.0201
784.0,-0.0201
783.9,-0.0207
783.8,-0.0204
783.7,-0.0208
783.6,-0.0212
783.5,-0.0214
783.4,-0.0209
783.3,-0.0209
783.2,-0.0206
783.1,-0.0210
783.0,-0.0204
782.9,-0.0213
782.8,-0.0212
782.7,-0.0211
782.6,-0.0215
782.5,-0.0214
782.4,-0.0218
782.3,-0.0215
782.2,-0.0214
782.1,-0.0212
782.0,-0.0206
781.9,-0.0197
781.8,-0.0200
781.7,-0.0215
781.6,-0.0217
781.5,-0.0219
781.4,-0.0218
781.3,-0.0203
781.2,-0.0214
781.1,-0.0209
781.0,-0.0214
780.9,-0.0208
780.8,-0.0214
780.7,-0.0214
780.6,-0.0204
780.5,-0.0202
780.4,-0.0206
780.3,-0.0215
780.2,-0.0214
780.1,-0.0207
780.0,-0.0204
779.9,-0.0210
779.8,-0.0205
779.7,-0.0210
779.6,-0.0220
779.5,-0.0212
779.4,-0.0203
779.3,-0.0209
779.2,-0.0211
779.1,-0.0205
779.0,-0.0206
778.9,-0.0200
778.8,-0.0202
778.7,-0.0204
778.6,-0.0212
778.5,-0.0214
778.4,-0.0206
778.3,-0.0212
778.2,-0.0201
778.1,-0.0212
778.0,-0.0211
777.9,-0.0207
777.8,-0.0208
777.7,-0.0211
777.6,-0.0206
777.5,-0.0208
777.4,-0.0198
777.3,-0.0204
777.2,-0.0201
777.1,-0.0199
777.0,-0.0203
776.9,-0.0197
776.8,-0.0205
776.7,-0.0196
776.6,-0.0194
776.5,-0.0210
776.4,-0.0203
776.3,-0.0201
776.2,-0.0209
776.1,-0.0216
776.0,-0.0211
775.9,-0.0205
775.8,-0.0194
775.7,-0.0212
775.6,-0.0219
775.5,-0.0215
775.4,-0.0207
775.3,-0.0198
775.2,-0.0202
775.1,-0.0207
775.0,-0.0207
774.9,-0.0201
774.8,-0.0210
774.7,-0.0207
774.6,-0.0196
774.5,-0.0204
774.4,-0.0215
774.3,-0.0200
774.2,-0.0207
774.1,-0.0208
774.0,-0.0207
773.9,-0.0213
773.8,-0.0210
773.7,-0.0207
773.6,-0.0207
773.5,-0.0210
773.4,-0.0207
773.3,-0.0203
773.2,-0.0198
773.1,-0.0204
773.0,-0.0209
772.9,-0.0206
772.8,-0.0207
772.7,-0.0202
772.6,-0.0210
772.5,-0.0205
772.4,-0.0205
772.3,-0.0205
772.2,-0.0209
772.1,-0.0205
772.0,-0.0201
771.9,-0.0214
771.8,-0.0204
771.7,-0.0205
771.6,-0.0213
771.5,-0.0208
771.4,-0.0212
771.3,-0.0210
771.2,-0.0208
771.1,-0.0207
771.0,-0.0203
770.9,-0.0209
770.8,-0.0203
770.7,-0.0195
770.6,-0.0202
770.5,-0.0197
770.4,-0.0199
770.3,-0.0198
770.2,-0.0198
770.1,-0.0192
770.0,-0.0193
769.9,-0.0194
769.8,-0.0192
769.7,-0.0193
769.6,-0.0203
769.5,-0.0195
769.4,-0.0190
769.3,-0.0194
769.2,-0.0190
769.1,-0.0182
769.0,-0.0187
768.9,-0.0186
768.8,-0.0181
768.7,-0.0182
768.6,-0.0188
768.5,-0.0186
768.4,-0.0190
768.3,-0.0190
768.2,-0.0185
768.1,-0.0174
768.0,-0.0175
767.9,-0.0181
767.8,-0.0181
767.7,-0.0178
767.6,-0.0176
767.5,-0.0170
767.4,-0.0165
767.3,-0.0170
767.2,-0.0173
767.1,-0.0180
767.0,-0.0181
766.9,-0.0169
766.8,-0.0167
766.7,-0.0173
766.6,-0.0169
766.5,-0.0167
766.4,-0.0163
766.3,-0.0159
766.2,-0.0161
766.1,-0.0164
766.0,-0.0163
765.9,-0.0162
765.8,-0.0161
765.7,-0.0159
765.6,-0.0155
765.5,-0.0151
765.4,-0.0149
765.3,-0.0149
765.2,-0.0148
765.1,-0.0146
765.0,-0.0146
764.9,-0.0148
764.8,-0.0148
764.7,-0.0143
764.6,-0.0141
764.5,-0.0143
764.4,-0.0138
764.3,-0.0141
764.2,-0.0144
764.1,-0.0140
764.0,-0.0138
763.9,-0.0139
763.8,-0.0134
763.7,-0.0132
763.6,-0.0135
763.5,-0.0132
763.4,-0.0127
763.3,-0.0129
763.2,-0.0129
763.1,-0.0127
763.0,-0.0126
762.9,-0.0128
762.8,-0.0123
762.7,-0.0120
762.6,-0.0124
762.5,-0.0125
762.4,-0.0119
762.3,-0.0118
762.2,-0.0118
762.1,-0.0124
762.0,-0.0122
761.9,-0.0118
761.8,-0.0126
761.7,-0.0128
761.6,-0.0121
761.5,-0.0116
761.4,-0.0118
761.3,-0.0122
761.2,-0.0125
761.1,-0.0124
761.0,-0.0115
760.9,-0.0124
760.8,-0.0125
760.7,-0.0124
760.6,-0.0119
760.5,-0.0126
760.4,-0.0128
760.3,-0.0132
760.2,-0.0135
760.1,-0.0130
760.0,-0.0125
759.9,-0.0132
759.8,-0.0139
759.7,-0.0132
759.6,-0.0134
759.5,-0.0137
759.4,-0.0140
759.3,-0.0137
759.2,-0.0140
759.1,-0.0144
759.0,-0.0149
758.9,-0.0142
758.8,-0.0149
758.7,-0.0143
758.6,-0.0144
758.5,-0.0143
758.4,-0.0151
758.3,-0.0151
758.2,-0.0156
758.1,-0.0152
758.0,-0.0160
757.9,-0.0165
757.8,-0.0155
757.7,-0.0161
757.6,-0.0165
757.5,-0.0168
757.4,-0.0166
757.3,-0.0176
757.2,-0.0174
757.1,-0.0181
757.0,-0.0172
756.9,-0.0174
756.8,-0.0181
756.7,-0.0187
756.6,-0.0182
756.5,-0.0176
756.4,-0.0191
756.3,-0.0189
756.2,-0.0188
756.1,-0.0195
756.0,-0.0193
755.9,-0.0207
755.8,-0.0195
755.7,-0.0201
755.6,-0.0207
755.5,-0.0200
755.4,-0.0215
755.3,-0.0210
755.2,-0.0218
755.1,-0.0227
755.0,-0.0218
754.9,-0.0231
754.8,-0.0216
754.7,-0.0221
754.6,-0.0214
754.5,-0.0224
754.4,-0.0227
754.3,-0.0229
754.2,-0.0229
754.1,-0.0230
754.0,-0.0229
753.9,-0.0239
753.8,-0.0246
753.7,-0.0230
753.6,-0.0236
753.5,-0.0237
753.4,-0.0243
753.3,-0.0242
753.2,-0.0249
753.1,-0.0243
753.0,-0.0247
752.9,-0.0254
752.8,-0.0251
752.7,-0.0257
752.6,-0.0256
752.5,-0.0254
752.4,-0.0251
752.3,-0.0249
752.2,-0.0256
752.1,-0.0258
752.0,-0.0264
751.9,-0.0263
751.8,-0.0264
751.7,-0.0273
751.6,-0.0267
751.5,-0.0271
751.4,-0.0266
751.3,-0.0269
751.2,-0.0273
751.1,-0.0275
751.0,-0.0270
750.9,-0.0274
750.8,-0.0273
750.7,-0.0270
750.6,-0.0272
750.5,-0.0275
750.4,-0.0273
750.3,-0.0277
750.2,-0.0278
750.1,-0.0281
750.0,-0.0278
749.9,-0.0283
749.8,-0.0269
749.7,-0.0280
749.6,-0.0278
749.5,-0.0278
749.4,-0.0281
749.3,-0.0274
749.2,-0.0274
749.1,-0.0275
749.0,-0.0279
748.9,-0.0283
748.8,-0.0286
748.7,-0.0280
748.6,-0.0282
748.5,-0.0280
748.4,-0.0282
748.3,-0.0274
748.2,-0.0280
748.1,-0.0284
748.0,-0.0288
747.9,-0.0280
747.8,-0.0271
747.7,-0.0273
747.6,-0.0275
747.5,-0.0277
747.4,-0.0273
747.3,-0.0280
747.2,-0.0279
747.1,-0.0277
747.0,-0.0281
746.9,-0.0279
746.8,-0.0281
746.7,-0.0282
746.6,-0.0276
746.5,-0.0278
746.4,-0.0284
746.3,-0.0286
746.2,-0.0279
746.1,-0.0284
746.0,-0.0281
745.9,-0.0278
745.8,-0.0279
745.7,-0.0281
745.6,-0.0277
745.5,-0.0278
745.4,-0.0280
745.3,-0.0283
745.2,-0.0276
745.1,-0.0274
745.0,-0.0278
744.9,-0.0277
744.8,-0.0276
744.7,-0.0278
744.6,-0.0284
744.5,-0.0286
744.4,-0.0283
744.3,-0.0284
744.2,-0.0280
744.1,-0.0277
744.0,-0.0281
743.9,-0.0282
743.8,-0.0281
743.7,-0.0280
743.6,-0.0283
743.5,-0.0282
743.4,-0.0286
743.3,-0.0279
743.2,-0.0276
743.1,-0.0284
743.0,-0.0288
742.9,-0.0292
742.8,-0.0290
742.7,-0.0289
742.6,-0.0290
742.5,-0.0289
742.4,-0.0285
742.3,-0.0281
742.2,-0.0282
742.1,-0.0289
742.0,-0.0289
741.9,-0.0283
741.8,-0.0287
741.7,-0.0290
741.6,-0.0287
741.5,-0.0285
741.4,-0.0286
741.3,-0.0286
741.2,-0.0285
741.1,-0.0289
741.0,-0.0288
740.9,-0.0284
740.8,-0.0286
740.7,-0.0288
740.6,-0.0287
740.5,-0.0285
740.4,-0.0288
740.3,-0.0286
740.2,-0.0280
740.1,-0.0284
740.0,-0.0289
739.9,-0.0289
739.8,-0.0285
739.7,-0.0282
739.6,-0.0279
739.5,-0.0285
739.4,-0.0287
739.3,-0.0285
739.2,-0.0288
739.1,-0.0284
739.0,-0.0283
738.9,-0.0280
738.8,-0.0274
738.7,-0.0275
738.6,-0.0277
738.5,-0.0280
738.4,-0.0274
738.3,-0.0270
738.2,-0.0273
738.1,-0.0275
738.0,-0.0271
737.9,-0.0269
737.8,-0.0269
737.7,-0.0268
737.6,-0.0265
737.5,-0.0269
737.4,-0.0269
737.3,-0.0264
737.2,-0.0263
737.1,-0.0260
737.0,-0.0258
736.9,-0.0254
736.8,-0.0255
736.7,-0.0250
736.6,-0.0247
736.5,-0.0244
736.4,-0.0242
736.3,-0.0245
736.2,-0.0246
736.1,-0.0247
736.0,-0.0241
735.9,-0.0238
735.8,-0.0235
735.7,-0.0238
735.6,-0.0232
735.5,-0.0236
735.4,-0.0233
735.3,-0.0227
735.2,-0.0228
735.1,-0.0231
735.0,-0.0223
734.9,-0.0222
734.8,-0.0219
734.7,-0.0217
734.6,-0.0215
734.5,-0.0206
734.4,-0.0208
734.3,-0.0212
734.2,-0.0208
734.1,-0.0212
734.0,-0.0214
733.9,-0.0203
733.8,-0.0205
733.7,-0.0203
733.6,-0.0205
733.5,-0.0204
733.4,-0.0196
733.3,-0.0202
733.2,-0.0195
733.1,-0.0192
733.0,-0.0186
732.9,-0.0190
732.8,-0.0191
732.7,-0.0193
732.6,-0.0190
732.5,-0.0182
732.4,-0.0193
732.3,-0.0184
732.2,-0.0185
732.1,-0.0187
732.0,-0.0184
731.9,-0.0187
731.8,-0.0175
731.7,-0.0172
731.6,-0.0174
731.5,-0.0173
731.4,-0.0180
731.3,-0.0178
731.2,-0.0181
731.1,-0.0177
731.0,-0.0187
730.9,-0.0183
730.8,-0.0178
730.7,-0.0182
730.6,-0.0190
730.5,-0.0185
730.4,-0.0172
730.3,-0.0178
730.2,-0.0181
730.1,-0.0175
730.0,-0.0174
729.9,-0.0189
729.8,-0.0189
729.7,-0.0189
729.6,-0.0179
729.5,-0.0188
729.4,-0.0188
729.3,-0.0185
729.2,-0.0194
729.1,-0.0195
729.0,-0.0188
728.9,-0.0195
728.8,-0.0188
728.7,-0.0188
728.6,-0.0197
728.5,-0.0197
728.4,-0.0198
728.3,-0.0198
728.2,-0.0199
728.1,-0.0197
728.0,-0.0201
727.9,-0.0201
727.8,-0.0207
727.7,-0.0198
727.6,-0.0205
727.5,-0.0201
727.4,-0.0206
727.3,-0.0210
727.2,-0.0212
727.1,-0.0212
727.0,-0.0215
726.9,-0.0221
726.8,-0.0219
726.7,-0.0218
726.6,-0.0216
726.5,-0.0225
726.4,-0.0216
726.3,-0.0215
726.2,-0.0219
726.1,-0.0221
726.0,-0.0228
725.9,-0.0226
725.8,-0.0222
725.7,-0.0227
725.6,-0.0233
725.5,-0.0229
725.4,-0.0238
725.3,-0.0231
725.2,-0.0234
725.1,-0.0236
725.0,-0.0236
724.9,-0.0240
724.8,-0.0245
724.7,-0.0238
724.6,-0.0242
724.5,-0.0241
724.4,-0.0245
724.3,-0.0246
724.2,-0.0241
724.1,-0.0240
724.0,-0.0248
723.9,-0.0248
723.8,-0.0249
723.7,-0.0248
723.6,-0.0249
723.5,-0.0247
723.4,-0.0253
723.3,-0.0249
723.2,-0.0250
723.1,-0.0249
723.0,-0.0245
722.9,-0.0246
722.8,-0.0250
722.7,-0.0254
722.6,-0.0252
722.5,-0.0253
722.4,-0.0251
722.3,-0.0249
722.2,-0.0256
722.1,-0.0255
722.0,-0.0254
721.9,-0.0255
721.8,-0.0252
721.7,-0.0254
721.6,-0.0256
721.5,-0.0255
721.4,-0.0258
721.3,-0.0261
721.2,-0.0259
721.1,-0.0261
721.0,-0.0260
720.9,-0.0259
720.8,-0.0262
720.7,-0.0263
720.6,-0.0260
720.5,-0.0263
720.4,-0.0265
720.3,-0.0262
720.2,-0.0264
720.1,-0.0265
720.0,-0.0263
719.9,-0.0262
719.8,-0.0266
719.7,-0.0266
719.6,-0.0259
719.5,-0.0258
719.4,-0.0260
719.3,-0.0263
719.2,-0.0263
719.1,-0.0262
719.0,-0.0258
718.9,-0.0262
718.8,-0.0263
718.7,-0.0258
718.6,-0.0263
718.5,-0.0265
718.4,-0.0265
718.3,-0.0265
718.2,-0.0263
718.1,-0.0265
718.0,-0.0265
717.9,-0.0260
717.8,-0.0262
717.7,-0.0264
717.6,-0.0263
717.5,-0.0268
717.4,-0.0266
717.3,-0.0263
717.2,-0.0262
717.1,-0.0255
717.0,-0.0252
716.9,-0.0258
716.8,-0.0250
716.7,-0.0245
716.6,-0.0248
716.5,-0.0251
716.4,-0.0254
716.3,-0.0251
716.2,-0.0250
716.1,-0.0250
716.0,-0.0245
715.9,-0.0239
715.8,-0.0241
715.7,-0.0242
715.6,-0.0239
715.5,-0.0233
715.4,-0.0234
715.3,-0.0231
715.2,-0.0232
715.1,-0.0232
715.0,-0.0225
714.9,-0.0223
714.8,-0.0223
714.7,-0.0222
714.6,-0.0221
714.5,-0.0220
714.4,-0.0216
714.3,-0.0215
714.2,-0.0215
714.1,-0.0213
714.0,-0.0215
713.9,-0.0216
713.8,-0.0209
713.7,-0.0213
713.6,-0.0213
713.5,-0.0212
713.4,-0.0209
713.3,-0.0209
713.2,-0.0207
713.1,-0.0207
713.0,-0.0210
712.9,-0.0202
712.8,-0.0205
712.7,-0.0205
712.6,-0.0206
712.5,-0.0200
712.4,-0.0200
712.3,-0.0199
712.2,-0.0198
712.1,-0.0204
712.0,-0.0202
711.9,-0.0202
711.8,-0.0199
711.7,-0.0201
711.6,-0.0201
711.5,-0.0201
711.4,-0.0210
711.3,-0.0208
711.2,-0.0204
711.1,-0.0201
711.0,-0.0205
710.9,-0.0203
710.8,-0.0210
710.7,-0.0212
710.6,-0.0211
710.5,-0.0219
710.4,-0.0219
710.3,-0.0215
710.2,-0.0216
710.1,-0.0216
710.0,-0.0223
709.9,-0.0228
709.8,-0.0224
709.7,-0.0225
709.6,-0.0224
709.5,-0.0231
709.4,-0.0229
709.3,-0.0221
709.2,-0.0235
709.1,-0.0236
709.0,-0.0235
708.9,-0.0235
708.8,-0.0238
708.7,-0.0242
708.6,-0.0242
708.5,-0.0242
708.4,-0.0247
708.3,-0.0244
708.2,-0.0252
708.1,-0.0248
708.0,-0.0245
707.9,-0.0253
707.8,-0.0259
707.7,-0.0254
707.6,-0.0254
707.5,-0.0257
707.4,-0.0252
707.3,-0.0252
707.2,-0.0262
707.1,-0.0259
707.0,-0.0262
706.9,-0.0269
706.8,-0.0265
706.7,-0.0264
706.6,-0.0272
706.5,-0.0268
706.4,-0.0268
706.3,-0.0266
706.2,-0.0265
706.1,-0.0267
706.0,-0.0264
705.9,-0.0265
705.8,-0.0281
705.7,-0.0275
705.6,-0.0269
705.5,-0.0271
705.4,-0.0276
705.3,-0.0272
705.2,-0.0273
705.1,-0.0276
705.0,-0.0271
704.9,-0.0271
704.8,-0.0269
704.7,-0.0277
704.6,-0.0282
704.5,-0.0282
704.4,-0.0276
704.3,-0.0277
704.2,-0.0276
704.1,-0.0279
704.0,-0.0274
703.9,-0.0284
703.8,-0.0276
703.7,-0.0284
703.6,-0.0282
703.5,-0.0279
703.4,-0.0281
703.3,-0.0281
703.2,-0.0283
703.1,-0.0280
703.0,-0.0278
702.9,-0.0283
702.8,-0.0287
702.7,-0.0280
702.6,-0.0284
702.5,-0.0282
702.4,-0.0279
702.3,-0.0277
702.2,-0.0277
702.1,-0.0278
702.0,-0.0279
701.9,-0.0277
701.8,-0.0276
701.7,-0.0275
701.6,-0.0272
701.5,-0.0275
701.4,-0.0275
701.3,-0.0273
701.2,-0.0278
701.1,-0.0270
701.0,-0.0274
700.9,-0.0275
700.8,-0.0276
700.7,-0.0272
700.6,-0.0262
700.5,-0.0262
700.4,-0.0267
700.3,-0.0261
700.2,-0.0260
700.1,-0.0256
700.0,-0.0255
699.9,-0.0255
699.8,-0.0258
699.7,-0.0256
699.6,-0.0254
699.5,-0.0247
699.4,-0.0247
699.3,-0.0247
699.2,-0.0247
699.1,-0.0240
699.0,-0.0241
698.9,-0.0242
698.8,-0.0237
698.7,-0.0233
698.6,-0.0229
698.5,-0.0227
698.4,-0.0230
698.3,-0.0226
698.2,-0.0227
698.1,-0.0223
698.0,-0.0216
697.9,-0.0218
697.8,-0.0222
697.7,-0.0219
697.6,-0.0218
697.5,-0.0213
697.4,-0.0211
697.3,-0.0210
697.2,-0.0213
697.1,-0.0212
697.0,-0.0207
696.9,-0.0205
696.8,-0.0202
696.7,-0.0200
696.6,-0.0201
696.5,-0.0200
696.4,-0.0200
696.3,-0.0201
696.2,-0.0199
696.1,-0.0199
696.0,-0.0198
695.9,-0.0195
695.8,-0.0197
695.7,-0.0197
695.6,-0.0192
695.5,-0.0195
695.4,-0.0195
695.3,-0.0194
695.2,-0.0194
695.1,-0.0195
695.0,-0.0195
694.9,-0.0198
694.8,-0.0198
694.7,-0.0191
694.6,-0.0191
694.5,-0.0196
694.4,-0.0196
694.3,-0.0192
694.2,-0.0199
694.1,-0.0203
694.0,-0.0195
693.9,-0.0188
693.8,-0.0191
693.7,-0.0194
693.6,-0.0190
693.5,-0.0195
693.4,-0.0195
693.3,-0.0190
693.2,-0.0192
693.1,-0.0197
693.0,-0.0196
692.9,-0.0193
692.8,-0.0196
692.7,-0.0193
692.6,-0.0199
692.5,-0.0199
692.4,-0.0195
692.3,-0.0196
692.2,-0.0198
692.1,-0.0196
692.0,-0.0195
691.9,-0.0193
691.8,-0.0201
691.7,-0.0203
691.6,-0.0201
691.5,-0.0200
691.4,-0.0202
691.3,-0.0206
691.2,-0.0207
691.1,-0.0209
691.0,-0.0209
690.9,-0.0211
690.8,-0.0208
690.7,-0.0210
690.6,-0.0211
690.5,-0.0210
690.4,-0.0210
690.3,-0.0210
690.2,-0.0208
690.1,-0.0213
690.0,-0.0213
689.9,-0.0219
689.8,-0.0218
689.7,-0.0218
689.6,-0.0224
689.5,-0.0225
689.4,-0.0218
689.3,-0.0216
689.2,-0.0221
689.1,-0.0227
689.0,-0.0229
688.9,-0.0228
688.8,-0.0229
688.7,-0.0228
688.6,-0.0229
688.5,-0.0225
688.4,-0.0230
688.3,-0.0236
688.2,-0.0233
688.1,-0.0235
688.0,-0.0241
687.9,-0.0243
687.8,-0.0244
687.7,-0.0240
687.6,-0.0240
687.5,-0.0238
687.4,-0.0247
687.3,-0.0245
687.2,-0.0244
687.1,-0.0247
687.0,-0.0254
686.9,-0.0245
686.8,-0.0246
686.7,-0.0244
686.6,-0.0251
686.5,-0.0254
686.4,-0.0251
686.3,-0.0244
686.2,-0.0244
686.1,-0.0253
686.0,-0.0249
685.9,-0.0255
685.8,-0.0257
685.7,-0.0253
685.6,-0.0255
685.5,-0.0254
685.4,-0.0255
685.3,-0.0249
685.2,-0.0258
685.1,-0.0257
685.0,-0.0260
684.9,-0.0259
684.8,-0.0259
684.7,-0.0251
684.6,-0.0258
684.5,-0.0264
684.4,-0.0257
684.3,-0.0257
684.2,-0.0255
684.1,-0.0256
684.0,-0.0261
683.9,-0.0256
683.8,-0.0260
683.7,-0.0261
683.6,-0.0254
683.5,-0.0255
683.4,-0.0262
683.3,-0.0264
683.2,-0.0262
683.1,-0.0263
683.0,-0.0257
682.9,-0.0259
682.8,-0.0264
682.7,-0.0267
682.6,-0.0262
682.5,-0.0261
682.4,-0.0267
682.3,-0.0268
682.2,-0.0269
682.1,-0.0264
682.0,-0.0265
681.9,-0.0269
681.8,-0.0269
681.7,-0.0263
681.6,-0.0266
681.5,-0.0267
681.4,-0.0271
681.3,-0.0269
681.2,-0.0267
681.1,-0.0267
681.0,-0.0267
680.9,-0.0269
680.8,-0.0270
680.7,-0.0267
680.6,-0.0271
680.5,-0.0265
680.4,-0.0267
680.3,-0.0267
680.2,-0.0268
680.1,-0.0262
680.0,-0.0267
679.9,-0.0269
679.8,-0.0272
679.7,-0.0270
679.6,-0.0267
679.5,-0.0272
679.4,-0.0267
679.3,-0.0271
679.2,-0.0272
679.1,-0.0268
679.0,-0.0272
678.9,-0.0269
678.8,-0.0270
678.7,-0.0268
678.6,-0.0272
678.5,-0.0268
678.4,-0.0270
678.3,-0.0273
678.2,-0.0277
678.1,-0.0268
678.0,-0.0274
677.9,-0.0273
677.8,-0.0271
677.7,-0.0275
677.6,-0.0273
677.5,-0.0277
677.4,-0.0275
677.3,-0.0273
677.2,-0.0273
677.1,-0.0273
677.0,-0.0274
676.9,-0.0273
676.8,-0.0275
676.7,-0.0273
676.6,-0.0277
676.5,-0.0274
676.4,-0.0274
676.3,-0.0274
676.2,-0.0271
676.1,-0.0273
676.0,-0.0271
675.9,-0.0270
675.8,-0.0273
675.7,-0.0274
675.6,-0.0273
675.5,-0.0275
675.4,-0.0275
675.3,-0.0276
675.2,-0.0277
675.1,-0.0279
675.0,-0.0281
674.9,-0.0275
674.8,-0.0271
674.7,-0.0272
674.6,-0.0272
674.5,-0.0273
674.4,-0.0271
674.3,-0.0273
674.2,-0.0273
674.1,-0.0270
674.0,-0.0272
673.9,-0.0275
673.8,-0.0276
673.7,-0.0279
673.6,-0.0277
673.5,-0.0275
673.4,-0.0275
673.3,-0.0276
673.2,-0.0274
673.1,-0.0271
673.0,-0.0273
672.9,-0.0274
672.8,-0.0273
672.7,-0.0274
672.6,-0.0274
672.5,-0.0274
672.4,-0.0271
672.3,-0.0271
672.2,-0.0271
672.1,-0.0272
672.0,-0.0270
671.9,-0.0268
671.8,-0.0270
671.7,-0.0272
671.6,-0.0273
671.5,-0.0271
671.4,-0.0270
671.3,-0.0273
671.2,-0.0271
671.1,-0.0270
671.0,-0.0270
670.9,-0.0269
670.8,-0.0270
670.7,-0.0269
670.6,-0.0270
670.5,-0.0271
670.4,-0.0273
670.3,-0.0273
670.2,-0.0267
670.1,-0.0269
670.0,-0.0271
669.9,-0.0268
669.8,-0.0267
669.7,-0.0272
669.6,-0.0274
669.5,-0.0271
669.4,-0.0268
669.3,-0.0270
669.2,-0.0269
669.1,-0.0267
669.0,-0.0266
668.9,-0.0263
668.8,-0.0262
668.7,-0.0262
668.6,-0.0262
668.5,-0.0262
668.4,-0.0266
668.3,-0.0268
668.2,-0.0269
668.1,-0.0262
668.0,-0.0262
667.9,-0.0258
667.8,-0.0262
667.7,-0.0267
667.6,-0.0265
667.5,-0.0264
667.4,-0.0259
667.3,-0.0262
667.2,-0.0262
667.1,-0.0260
667.0,-0.0262
666.9,-0.0261
666.8,-0.0261
666.7,-0.0261
666.6,-0.0260
666.5,-0.0261
666.4,-0.0263
666.3,-0.0263
666.2,-0.0258
666.1,-0.0256
666.0,-0.0260
665.9,-0.0261
665.8,-0.0258
665.7,-0.0255
665.6,-0.0257
665.5,-0.0258
665.4,-0.0256
665.3,-0.0255
665.2,-0.0256
665.1,-0.0257
665.0,-0.0251
664.9,-0.0258
664.8,-0.0258
664.7,-0.0256
664.6,-0.0258
664.5,-0.0261
664.4,-0.0261
664.3,-0.0255
664.2,-0.0254
664.1,-0.0259
664.0,-0.0258
663.9,-0.0256
663.8,-0.0257
663.7,-0.0258
663.6,-0.0257
663.5,-0.0252
663.4,-0.0248
663.3,-0.0253
663.2,-0.0255
663.1,-0.0255
663.0,-0.0253
662.9,-0.0255
662.8,-0.0253
662.7,-0.0249
662.6,-0.0260
662.5,-0.0250
662.4,-0.0258
662.3,-0.0249
662.2,-0.0253
662.1,-0.0254
662.0,-0.0256
661.9,-0.0252
661.8,-0.0255
661.7,-0.0253
661.6,-0.0251
661.5,-0.0247
661.4,-0.0251
661.3,-0.0256
661.2,-0.0255
661.1,-0.0247
661.0,-0.0250
660.9,-0.0255
660.8,-0.0257
660.7,-0.0258
660.6,-0.0251
660.5,-0.0250
660.4,-0.0252
660.3,-0.0247
660.2,-0.0253
660.1,-0.0249
660.0,-0.0249
659.9,-0.0250
659.8,-0.0249
659.7,-0.0251
659.6,-0.0248
659.5,-0.0255
659.4,-0.0255
659.3,-0.0249
659.2,-0.0248
659.1,-0.0249
659.0,-0.0258
658.9,-0.0254
658.8,-0.0250
658.7,-0.0251
658.6,-0.0254
658.5,-0.0247
658.4,-0.0250
658.3,-0.0250
658.2,-0.0251
658.1,-0.0254
658.0,-0.0253
657.9,-0.0251
657.8,-0.0252
657.7,-0.0253
657.6,-0.0253
657.5,-0.0252
657.4,-0.0255
657.3,-0.0249
657.2,-0.0248
657.1,-0.0253
657.0,-0.0256
656.9,-0.0253
656.8,-0.0254
656.7,-0.0252
656.6,-0.0255
656.5,-0.0254
656.4,-0.0253
656.3,-0.0252
656.2,-0.0259
656.1,-0.0250
656.0,-0.0253
655.9,-0.0262
655.8,-0.0252
655.7,-0.0253
655.6,-0.0253
655.5,-0.0250
655.4,-0.0255
655.3,-0.0255
655.2,-0.0254
655.1,-0.0255
655.0,-0.0252
654.9,-0.0258
654.8,-0.0250
654.7,-0.0256
654.6,-0.0258
654.5,-0.0257
654.4,-0.0254
654.3,-0.0254
654.2,-0.0251
654.1,-0.0257
654.0,-0.0254
653.9,-0.0254
653.8,-0.0256
653.7,-0.0257
653.6,-0.0259
653.5,-0.0259
653.4,-0.0258
653.3,-0.0259
653.2,-0.0255
653.1,-0.0257
653.0,-0.0256
652.9,-0.0256
652.8,-0.0261
652.7,-0.0261
652.6,-0.0259
652.5,-0.0263
652.4,-0.0264
652.3,-0.0255
652.2,-0.0258
652.1,-0.0259
652.0,-0.0256
651.9,-0.0258
651.8,-0.0262
651.7,-0.0260
651.6,-0.0259
651.5,-0.0259
651.4,-0.0261
651.3,-0.0257
651.2,-0.0258
651.1,-0.0260
651.0,-0.0261
650.9,-0.0262
650.8,-0.0260
650.7,-0.0262
650.6,-0.0259
650.5,-0.0260
650.4,-0.0260
650.3,-0.0262
650.2,-0.0260
650.1,-0.0255
650.0,-0.0259
649.9,-0.0266
649.8,-0.0265
649.7,-0.0265
649.6,-0.0267
649.5,-0.0269
649.4,-0.0269
649.3,-0.0267
649.2,-0.0267
649.1,-0.0270
649.0,-0.0270
648.9,-0.0272
648.8,-0.0271
648.7,-0.0270
648.6,-0.0271
648.5,-0.0270
648.4,-0.0271
648.3,-0.0269
648.2,-0.0270
648.1,-0.0269
648.0,-0.0266
647.9,-0.0269
647.8,-0.0273
647.7,-0.0273
647.6,-0.0273
647.5,-0.0273
647.4,-0.0274
647.3,-0.0275
647.2,-0.0273
647.1,-0.0272
647.0,-0.0271
646.9,-0.0273
646.8,-0.0275
646.7,-0.0276
646.6,-0.0277
646.5,-0.0276
646.4,-0.0274
646.3,-0.0278
646.2,-0.0279
646.1,-0.0277
646.0,-0.0276
645.9,-0.0276
645.8,-0.0276
645.7,-0.0276
645.6,-0.0281
645.5,-0.0281
645.4,-0.0277
645.3,-0.0279
645.2,-0.0281
645.1,-0.0284
645.0,-0.0283
644.9,-0.0281
644.8,-0.0278
644.7,-0.0283
644.6,-0.0282
644.5,-0.0285
644.4,-0.0288
644.3,-0.0285
644.2,-0.0283
644.1,-0.0284
644.0,-0.0286
643.9,-0.0289
643.8,-0.0288
643.7,-0.0291
643.6,-0.0290
643.5,-0.0287
643.4,-0.0290
643.3,-0.0290
643.2,-0.0288
643.1,-0.0290
643.0,-0.0291
642.9,-0.0290
642.8,-0.0292
642.7,-0.0290
642.6,-0.0293
642.5,-0.0292
642.4,-0.0289
642.3,-0.0295
642.2,-0.0294
642.1,-0.0292
642.0,-0.0295
641.9,-0.0289
641.8,-0.0295
641.7,-0.0293
641.6,-0.0295
641.5,-0.0295
641.4,-0.0298
641.3,-0.0293
641.2,-0.0296
641.1,-0.0302
641.0,-0.0301
640.9,-0.0295
640.8,-0.0293
640.7,-0.0302
640.6,-0.0298
640.5,-0.0297
640.4,-0.0297
640.3,-0.0302
640.2,-0.0302
640.1,-0.0303
640.0,-0.0301
639.9,-0.0310
639.8,-0.0303
639.7,-0.0306
639.6,-0.0305
639.5,-0.0307
639.4,-0.0303
639.3,-0.0303
639.2,-0.0309
639.1,-0.0308
639.0,-0.0308
638.9,-0.0308
638.8,-0.0308
638.7,-0.0308
638.6,-0.0304
638.5,-0.0312
638.4,-0.0311
638.3,-0.0305
638.2,-0.0316
638.1,-0.0307
638.0,-0.0313
637.9,-0.0311
637.8,-0.0312
637.7,-0.0308
637.6,-0.0318
637.5,-0.0311
637.4,-0.0313
637.3,-0.0313
637.2,-0.0312
637.1,-0.0313
637.0,-0.0319
636.9,-0.0313
636.8,-0.0313
636.7,-0.0319
636.6,-0.0312
636.5,-0.0315
636.4,-0.0325
636.3,-0.0325
636.2,-0.0320
636.1,-0.0321
636.0,-0.0324
635.9,-0.0323
635.8,-0.0321
635.7,-0.0322
635.6,-0.0327
635.5,-0.0325
635.4,-0.0325
635.3,-0.0325
635.2,-0.0325
635.1,-0.0333
635.0,-0.0322
634.9,-0.0331
634.8,-0.0327
634.7,-0.0324
634.6,-0.0329
634.5,-0.0327
634.4,-0.0335
634.3,-0.0328
634.2,-0.0331
634.1,-0.0332
634.0,-0.0333
633.9,-0.0337
633.8,-0.0331
633.7,-0.0329
633.6,-0.0334
633.5,-0.0330
633.4,-0.0337
633.3,-0.0334
633.2,-0.0340
633.1,-0.0340
633.0,-0.0336
632.9,-0.0338
632.8,-0.0338
632.7,-0.0341
632.6,-0.0339
632.5,-0.0343
632.4,-0.0340
632.3,-0.0338
632.2,-0.0341
632.1,-0.0338
632.0,-0.0339
631.9,-0.0340
631.8,-0.0341
631.7,-0.0344
631.6,-0.0342
631.5,-0.0341
631.4,-0.0341
631.3,-0.0344
631.2,-0.0344
631.1,-0.0347
631.0,-0.0345
630.9,-0.0347
630.8,-0.0346
630.7,-0.0346
630.6,-0.0345
630.5,-0.0351
630.4,-0.0348
630.3,-0.0347
630.2,-0.0349
630.1,-0.0348
630.0,-0.0349
629.9,-0.0349
629.8,-0.0352
629.7,-0.0349
629.6,-0.0353
629.5,-0.0348
629.4,-0.0348
629.3,-0.0351
629.2,-0.0348
629.1,-0.0350
629.0,-0.0357
628.9,-0.0354
628.8,-0.0354
628.7,-0.0354
628.6,-0.0353
628.5,-0.0358
628.4,-0.0357
628.3,-0.0358
628.2,-0.0355
628.1,-0.0355
628.0,-0.0354
627.9,-0.0355
627.8,-0.0356
627.7,-0.0362
627.6,-0.0363
627.5,-0.0359
627.4,-0.0362
627.3,-0.0359
627.2,-0.0358
627.1,-0.0359
627.0,-0.0364
626.9,-0.0364
626.8,-0.0364
626.7,-0.0366
626.6,-0.0370
626.5,-0.0370
626.4,-0.0367
626.3,-0.0366
626.2,-0.0367
626.1,-0.0369
626.0,-0.0370
625.9,-0.0369
625.8,-0.0367
625.7,-0.0367
625.6,-0.0370
625.5,-0.0370
625.4,-0.0371
625.3,-0.0373
625.2,-0.0370
625.1,-0.0372
625.0,-0.0374
624.9,-0.0371
624.8,-0.0369
624.7,-0.0371
624.6,-0.0372
624.5,-0.0371
624.4,-0.0372
624.3,-0.0373
624.2,-0.0373
624.1,-0.0373
624.0,-0.0374
623.9,-0.0375
623.8,-0.0374
623.7,-0.0375
623.6,-0.0377
623.5,-0.0378
623.4,-0.0376
623.3,-0.0377
623.2,-0.0380
623.1,-0.0378
623.0,-0.0380
622.9,-0.0381
622.8,-0.0378
622.7,-0.0381
622.6,-0.0385
622.5,-0.0383
622.4,-0.0384
622.3,-0.0386
622.2,-0.0385
622.1,-0.0384
622.0,-0.0385
621.9,-0.0382
621.8,-0.0379
621.7,-0.0381
621.6,-0.0384
621.5,-0.0386
621.4,-0.0386
621.3,-0.0382
621.2,-0.0381
621.1,-0.0382
621.0,-0.0383
620.9,-0.0380
620.8,-0.0383
620.7,-0.0384
620.6,-0.0387
620.5,-0.0385
620.4,-0.0386
620.3,-0.0388
620.2,-0.0388
620.1,-0.0388
620.0,-0.0389
619.9,-0.0390
619.8,-0.0388
619.7,-0.0390
619.6,-0.0391
619.5,-0.0394
619.4,-0.0392
619.3,-0.0392
619.2,-0.0391
619.1,-0.0391
619.0,-0.0392
618.9,-0.0391
618.8,-0.0396
618.7,-0.0395
618.6,-0.0396
618.5,-0.0398
618.4,-0.0397
618.3,-0.0398
618.2,-0.0399
618.1,-0.0396
618.0,-0.0397
617.9,-0.0399
617.8,-0.0399
617.7,-0.0396
617.6,-0.0396
617.5,-0.0395
617.4,-0.0396
617.3,-0.0396
617.2,-0.0394
617.1,-0.0397
617.0,-0.0395
616.9,-0.0401
616.8,-0.0401
616.7,-0.0401
616.6,-0.0401
616.5,-0.0396
616.4,-0.0399
616.3,-0.0395
616.2,-0.0393
616.1,-0.0393
616.0,-0.0399
615.9,-0.0399
615.8,-0.0400
615.7,-0.0399
615.6,-0.0398
615.5,-0.0398
615.4,-0.0397
615.3,-0.0396
615.2,-0.0400
615.1,-0.0393
615.0,-0.0396
614.9,-0.0398
614.8,-0.0398
614.7,-0.0395
614.6,-0.0403
614.5,-0.0404
614.4,-0.0396
614.3,-0.0401
614.2,-0.0401
614.1,-0.0404
614.0,-0.0399
613.9,-0.0398
613.8,-0.0404
613.7,-0.0401
613.6,-0.0399
613.5,-0.0407
613.4,-0.0400
613.3,-0.0401
613.2,-0.0400
613.1,-0.0405
613.0,-0.0406
612.9,-0.0400
612.8,-0.0407
612.7,-0.0402
612.6,-0.0404
612.5,-0.0399
612.4,-0.0405
612.3,-0.0405
612.2,-0.0403
612.1,-0.0405
612.0,-0.0404
611.9,-0.0407
611.8,-0.0405
611.7,-0.0406
611.6,-0.0407
611.5,-0.0407
611.4,-0.0406
611.3,-0.0406
611.2,-0.0409
611.1,-0.0406
611.0,-0.0409
610.9,-0.0401
610.8,-0.0408
610.7,-0.0406
610.6,-0.0407
610.5,-0.0408
610.4,-0.0413
610.3,-0.0410
610.2,-0.0403
610.1,-0.0405
610.0,-0.0404
609.9,-0.0408
609.8,-0.0411
609.7,-0.0407
609.6,-0.0409
609.5,-0.0410
609.4,-0.0410
609.3,-0.0408
609.2,-0.0405
609.1,-0.0407
609.0,-0.0408
608.9,-0.0409
608.8,-0.0409
608.7,-0.0409
608.6,-0.0409
608.5,-0.0408
608.4,-0.0409
608.3,-0.0407
608.2,-0.0406
608.1,-0.0410
608.0,-0.0407
607.9,-0.0410
607.8,-0.0412
607.7,-0.0414
607.6,-0.0409
607.5,-0.0409
607.4,-0.0413
607.3,-0.0412
607.2,-0.0412
607.1,-0.0411
607.0,-0.0409
606.9,-0.0410
606.8,-0.0409
606.7,-0.0409
606.6,-0.0411
606.5,-0.0414
606.4,-0.0410
606.3,-0.0405
606.2,-0.0407
606.1,-0.0408
606.0,-0.0408
605.9,-0.0407
605.8,-0.0408
605.7,-0.0409
605.6,-0.0411
605.5,-0.0409
605.4,-0.0406
605.3,-0.0411
605.2,-0.0410
605.1,-0.0409
605.0,-0.0404
604.9,-0.0406
604.8,-0.0408
604.7,-0.0407
604.6,-0.0410
604.5,-0.0411
604.4,-0.0410
604.3,-0.0411
604.2,-0.0413
604.1,-0.0415
604.0,-0.0409
603.9,-0.0405
603.8,-0.0406
603.7,-0.0408
603.6,-0.0409
603.5,-0.0411
603.4,-0.0412
603.3,-0.0413
603.2,-0.0412
603.1,-0.0409
603.0,-0.0408
602.9,-0.0408
602.8,-0.0411
602.7,-0.0408
602.6,-0.0407
602.5,-0.0408
602.4,-0.0407
602.3,-0.0410
602.2,-0.0410
602.1,-0.0407
602.0,-0.0406
601.9,-0.0407
601.8,-0.0406
601.7,-0.0407
601.6,-0.0407
601.5,-0.0406
601.4,-0.0407
601.3,-0.0410
601.2,-0.0412
601.1,-0.0410
601.0,-0.0408
600.9,-0.0410
600.8,-0.0409
600.7,-0.0407
600.6,-0.0407
600.5,-0.0407
600.4,-0.0409
600.3,-0.0409
600.2,-0.0407
600.1,-0.0406
600.0,-0.0408
599.9,-0.0406
599.8,-0.0406
599.7,-0.0407
599.6,-0.0408
599.5,-0.0410
599.4,-0.0409
599.3,-0.0409
599.2,-0.0407
599.1,-0.0408
599.0,-0.0410
598.9,-0.0408
598.8,-0.0408
598.7,-0.0410
598.6,-0.0407
598.5,-0.0403
598.4,-0.0402
598.3,-0.0405
598.2,-0.0407
598.1,-0.0405
598.0,-0.0405
597.9,-0.0406
597.8,-0.0409
597.7,-0.0406
597.6,-0.0406
597.5,-0.0404
597.4,-0.0407
597.3,-0.0410
597.2,-0.0407
597.1,-0.0406
597.0,-0.0404
596.9,-0.0403
596.8,-0.0408
596.7,-0.0405
596.6,-0.0407
596.5,-0.0406
596.4,-0.0406
596.3,-0.0407
596.2,-0.0406
596.1,-0.0407
596.0,-0.0406
595.9,-0.0407
595.8,-0.0405
595.7,-0.0405
595.6,-0.0410
595.5,-0.0410
595.4,-0.0408
595.3,-0.0407
595.2,-0.0407
595.1,-0.0407
595.0,-0.0408
594.9,-0.0408
594.8,-0.0404
594.7,-0.0405
594.6,-0.0411
594.5,-0.0410
594.4,-0.0408
594.3,-0.0406
594.2,-0.0407
594.1,-0.0408
594.0,-0.0410
593.9,-0.0408
593.8,-0.0408
593.7,-0.0406
593.6,-0.0407
593.5,-0.0408
593.4,-0.0409
593.3,-0.0410
593.2,-0.0412
593.1,-0.0413
593.0,-0.0411
592.9,-0.0410
592.8,-0.0409
592.7,-0.0407
592.6,-0.0409
592.5,-0.0413
592.4,-0.0407
592.3,-0.0408
592.2,-0.0412
592.1,-0.0406
592.0,-0.0408
591.9,-0.0409
591.8,-0.0410
591.7,-0.0407
591.6,-0.0411
591.5,-0.0411
591.4,-0.0410
591.3,-0.0414
591.2,-0.0413
591.1,-0.0411
591.0,-0.0414
590.9,-0.0413
590.8,-0.0415
590.7,-0.0413
590.6,-0.0409
590.5,-0.0413
590.4,-0.0412
590.3,-0.0410
590.2,-0.0412
590.1,-0.0415
590.0,-0.0410
589.9,-0.0418
589.8,-0.0413
589.7,-0.0412
589.6,-0.0414
589.5,-0.0413
589.4,-0.0413
589.3,-0.0416
589.2,-0.0416
589.1,-0.0415
589.0,-0.0417
588.9,-0.0417
588.8,-0.0412
588.7,-0.0415
588.6,-0.0416
588.5,-0.0419
588.4,-0.0415
588.3,-0.0415
588.2,-0.0418
588.1,-0.0417
588.0,-0.0413
587.9,-0.0420
587.8,-0.0419
587.7,-0.0419
587.6,-0.0419
587.5,-0.0417
587.4,-0.0424
587.3,-0.0420
587.2,-0.0419
587.1,-0.0422
587.0,-0.0421
586.9,-0.0421
586.8,-0.0417
586.7,-0.0419
586.6,-0.0421
586.5,-0.0423
586.4,-0.0419
586.3,-0.0423
586.2,-0.0422
586.1,-0.0420
586.0,-0.0423
585.9,-0.0423
585.8,-0.0425
585.7,-0.0427
585.6,-0.0423
585.5,-0.0424
585.4,-0.0425
585.3,-0.0427
585.2,-0.0426
585.1,-0.0422
585.0,-0.0422
584.9,-0.0423
584.8,-0.0423
584.7,-0.0422
584.6,-0.0425
584.5,-0.0423
584.4,-0.0421
584.3,-0.0425
584.2,-0.0428
584.1,-0.0426
584.0,-0.0428
583.9,-0.0428
583.8,-0.0428
583.7,-0.0426
583.6,-0.0426
583.5,-0.0425
583.4,-0.0427
583.3,-0.0430
583.2,-0.0427
583.1,-0.0426
583.0,-0.0427
582.9,-0.0429
582.8,-0.0432
582.7,-0.0432
582.6,-0.0430
582.5,-0.0434
582.4,-0.0431
582.3,-0.0431
582.2,-0.0432
582.1,-0.0430
582.0,-0.0431
581.9,-0.0432
581.8,-0.0431
581.7,-0.0432
581.6,-0.0433
581.5,-0.0431
581.4,-0.0436
581.3,-0.0432
581.2,-0.0436
581.1,-0.0436
581.0,-0.0433
580.9,-0.0432
580.8,-0.0434
580.7,-0.0433
580.6,-0.0434
580.5,-0.0438
580.4,-0.0438
580.3,-0.0437
580.2,-0.0436
580.1,-0.0436
580.0,-0.0435
